-0.015869,-0.0099182,-0.021362,-0.0085449,-0.0057983,-0.0039673,-0.0054932,0.0061035,0.0056458,0.0022888,-0.0033569,-0.022736,-0.016327,-0.023346,-0.00091553,0.010223,-0.0012207,0.0080872,-0.019073,-0.0073242,0.011749,-0.0027466,0.0016785,0.00045776,-0.0015259,-0.0015259,0.011139,-0.015564,-0.0067139,0.01297,-0.0013733,0.0039673,-0.002594,-0.0033569,0,0.014648,-0.0054932,-0.0022888,0.023651,-0.016937,-0.0018311,-0.021057
-0.017395,-0.015411,-0.016174,-0.0054932,-0.0030518,-0.0039673,-0.0036621,0.0041199,0.011444,-0.00030518,-0.0083923,-0.022888,-0.015564,-0.021057,-0.0054932,0.010529,-0.00061035,0.0030518,-0.019226,-0.0033569,0.015411,-0.0041199,-0.0039673,-0.0021362,-0.0018311,-0.007782,0.014038,-0.020447,-0.002594,0.0083923,-0.0067139,0.0013733,-0.0050354,-0.0036621,-0.0030518,0.010529,-0.0090027,0.0083923,0.013885,-0.009613,0.012512,-0.019989
-0.019531,-0.022125,-0.015869,-0.01297,0.0016785,-0.0056458,-0.0048828,0.002594,0.010834,-0.004425,-0.012207,-0.024414,-0.0013733,-0.021362,-0.005188,0.01358,-0.0036621,-0.0024414,-0.019226,-0.007019,0.012512,-0.0094604,-0.0073242,-0.005188,-0.005188,-0.018005,0.011749,-0.012054,-0.0071716,0.0068665,-0.011139,-0.0019836,-0.010681,-0.0050354,-0.0027466,0.013428,-0.018311,0.0088501,0.010376,0.0027466,0.012207,-0.024872
-0.010529,-0.021362,-0.015869,-0.020142,0.00030518,-0.002594,-0.0099182,-0.0021362,0.010376,-0.0062561,-0.0068665,-0.018616,0.011749,-0.020294,-0.0021362,0.0064087,-0.00076294,-0.0057983,-0.02243,-0.0076294,0.0067139,-0.018158,-0.01358,-0.0065613,-0.0039673,-0.019684,0.010071,0.002594,-0.014038,0.0019836,-0.0073242,-0.0039673,-0.017395,-0.0038147,-0.0053406,0.0059509,-0.020752,0.0094604,0.0047302,0.010986,0.012207,-0.019989
0.0068665,-0.024109,-0.0024414,-0.014496,-0.0067139,0.00030518,-0.015564,-0.0048828,0.0091553,-0.014191,-0.005188,-0.0080872,0.014038,-0.017395,0.0024414,0.0042725,-0.011292,-0.0080872,-0.017548,-0.017242,0.0038147,-0.016174,-0.010681,-0.005188,-0.0032043,-0.021973,0.0067139,0.011749,-0.014038,-0.0013733,-0.0076294,-0.0067139,-0.022125,-0.0059509,-0.0039673,0.0054932,-0.020142,0.010223,0.0018311,0.012207,0.0099182,-0.0094604
0.010986,-0.023499,0.011444,-0.015717,-0.01236,0.0012207,-0.015869,-0.0056458,0.0038147,-0.0083923,-0.0054932,0.007782,0.0073242,0,-0.00076294,-0.0022888,-0.018463,-0.0085449,-0.011749,-0.021667,0,-0.0177,-0.007782,-0.00061035,-0.0047302,-0.019836,-0.00076294,0.011902,-0.014191,-0.0013733,-0.0071716,-0.0053406,-0.021973,-0.0045776,-0.010529,0.0045776,-0.023651,0.011139,-0.0036621,0.010834,0.0062561,0.0079346
0.007019,-0.0099182,0.014496,-0.019073,-0.017853,-0.0059509,-0.016632,-0.0012207,-0.00091553,-0.0042725,-0.014801,0.018768,0.0088501,0.015869,-0.0012207,-0.0028992,-0.02243,-0.010223,0.0065613,-0.014191,0.00061035,-0.013428,-0.0085449,-0.0024414,-0.0083923,-0.015564,-0.0012207,0.010223,-0.018158,-0.0059509,-0.010529,0,-0.024261,-0.0085449,-0.017395,-0.0018311,-0.020905,0.0054932,-0.0057983,0.012207,0.0021362,0.020599
0.0056458,0.007019,0.01358,-0.014038,-0.021362,-0.014038,-0.019379,0.00045776,-0.005188,-0.0038147,-0.019836,0.020294,0.0059509,0.017395,-0.0091553,-0.0059509,-0.018768,-0.0053406,0.019836,-0.016937,-0.0041199,-0.014191,-0.0074768,-0.0041199,-0.01358,-0.017395,-0.0039673,0.012817,-0.011902,-0.0085449,-0.021362,0,-0.0177,-0.016174,-0.019379,-0.0032043,-0.014801,0.0018311,-0.007019,0.0086975,-0.0013733,0.022278
0.0033569,0.021057,0.0059509,0.004425,-0.02594,-0.021057,-0.011597,-0.002594,-0.0059509,-0.0097656,-0.019989,0.014191,0.002594,0.015411,-0.015106,-0.0068665,-0.018768,-0.011749,0.020447,-0.018158,-0.0021362,-0.0030518,-0.012817,-0.014343,-0.016785,-0.013123,-0.007019,0.0039673,0.0039673,-0.0076294,-0.019226,-0.0047302,-0.0048828,-0.023499,-0.021362,-0.0050354,0.0038147,-0.00076294,-0.0053406,0,-0.0053406,0.014191
0.0035095,0.018921,0.0056458,0.013428,-0.025482,-0.023346,0.0041199,-0.005188,-0.00030518,-0.018005,-0.016785,0.0064087,-0.0021362,0.0093079,-0.017242,-0.0012207,-0.019073,-0.020294,0.014191,-0.0080872,-0.0015259,0.011292,-0.014648,-0.02121,-0.017395,-0.0061035,-0.0076294,0.0010681,0.0086975,0.004425,-0.019073,-0.014648,0.0090027,-0.018463,-0.022583,-0.0013733,0.017853,-0.0056458,-0.0054932,-0.0021362,-0.005188,0.007019
-0.00030518,0.015106,0.0036621,0.011292,-0.018921,-0.026093,0.0088501,-0.013123,-0.0021362,-0.020752,-0.016327,0.0019836,-0.0019836,0.0062561,-0.02243,-0.0036621,-0.019684,-0.017395,0.0093079,0.010223,-0.00045776,0.010986,-0.011597,-0.019531,-0.020752,0.013885,-0.0039673,-0.0019836,0.0099182,0.0018311,-0.011139,-0.018311,0.017548,-0.016327,-0.024109,0.00030518,0.020752,-0.0022888,-0.013885,-0.0059509,-0.0024414,0.0062561
-0.0032043,0.007019,-0.00076294,0.010071,-0.0013733,-0.021973,0.0094604,-0.019073,-0.0027466,-0.017548,-0.015411,0.0022888,-0.0067139,0.0041199,-0.02243,-0.0027466,-0.0061035,-0.015259,0.004425,0.012512,-0.0039673,0.012817,-0.014038,-0.015869,-0.016479,0.021667,-0.00061035,-0.0045776,0.0090027,-0.0016785,-0.016022,-0.022736,0.016479,-0.014954,-0.019989,-0.00045776,0.014038,-0.0028992,-0.024109,-0.0012207,-0.00015259,-0.0035095
-0.0062561,0.005188,-0.0041199,0.0062561,0.011749,-0.018768,0.0094604,-0.023651,-0.0038147,-0.019379,0.0045776,-0.005188,-0.0048828,0.00030518,-0.019379,-0.0094604,0.01297,-0.014648,0.0018311,0.011444,-0.010834,0.0061035,-0.015411,-0.018616,-0.015869,0.020447,0.0013733,-0.0083923,0.0059509,-0.010529,-0.014191,-0.015869,0.01236,-0.010529,-0.0090027,-0.0080872,0.013428,-0.0032043,-0.022278,-0.0021362,-0.004425,-0.0038147
-0.0054932,-0.00030518,-0.0054932,0.0042725,0.019684,-0.0013733,0.0074768,-0.022125,-0.0093079,-0.018158,0.011597,-0.0073242,-0.0038147,-0.0080872,-0.018463,-0.013275,0.016937,-0.016022,-0.0057983,0.0071716,-0.013885,0.0036621,-0.0039673,-0.011139,-0.0041199,0.013428,-0.0082397,-0.00076294,0.0030518,-0.01358,0.0016785,-0.018463,0.010681,0.0035095,0.0076294,-0.013123,0.007782,-0.0097656,-0.020752,-0.0047302,-0.010529,-0.0053406
0.00030518,-0.0010681,-0.0054932,-0.0013733,0.019073,0.013733,0.0032043,-0.025787,-0.01297,-0.00061035,0.010986,-0.0076294,-0.0021362,-0.0074768,-0.00076294,-0.019836,0.016327,-0.0036621,-0.010834,0.0041199,-0.022888,0.00091553,0.011292,0.0024414,0.010681,0.004425,-0.016785,0.0090027,0.0012207,-0.021667,0.014801,-0.016327,0.0056458,0.011902,0.016174,-0.018921,0.0018311,-0.017548,-0.012817,-0.011139,-0.019989,-0.0032043
-0.00091553,-0.0086975,0.0010681,-0.0038147,0.010529,0.018158,-0.0015259,-0.023193,-0.021667,0.011749,0.0080872,-0.0071716,-0.0053406,-0.0090027,0.014343,-0.020447,0.012817,0.0065613,-0.010986,0.004425,-0.019379,-0.0021362,0.011444,0.014038,0.017242,0.00030518,-0.023041,0.007019,-0.0036621,-0.023804,0.015411,-0.017548,-0.00015259,0.011444,0.017395,-0.020447,-0.0047302,-0.019989,-0.01297,-0.019684,-0.024872,-0.0012207
-0.00030518,-0.009613,-0.0022888,-0.0042725,0.010376,0.018768,-0.0021362,-0.0073242,-0.019226,0.012817,0.0094604,-0.0061035,-0.010681,-0.007019,0.019379,-0.021515,0.0097656,0.010529,-0.0080872,-0.0010681,-0.018311,-0.0032043,0.0062561,0.014343,0.015106,-0.0054932,-0.020599,-0.0045776,-0.0036621,-0.023041,0.012512,0.00091553,-0.0032043,0.0080872,0.016785,-0.024109,-0.0030518,-0.020294,-0.01236,-0.021515,-0.023346,-0.007019
-0.0050354,-0.007782,-0.0038147,-0.0076294,0.0024414,0.0082397,-0.0035095,0.011444,-0.021362,0.0088501,0.0041199,-0.0056458,-0.015259,-0.0054932,0.015717,-0.020752,0.0062561,0.012207,-0.0057983,-0.0041199,-0.020905,-0.0045776,0.0036621,0.009613,0.0082397,-0.0079346,-0.018768,-0.018921,-0.0064087,-0.024261,0.010681,0.016174,-0.0099182,0.0079346,0.009613,-0.02182,-0.0053406,-0.022736,0.0016785,-0.025482,-0.0177,-0.011749
-0.012817,-0.0062561,-0.010223,-0.0032043,0.00030518,0.0065613,-0.0047302,0.019531,-0.020905,0.0094604,-0.0030518,-0.011749,-0.019379,-0.009613,0.0091553,-0.018158,0.0018311,0.0091553,-0.004425,-0.0041199,-0.018921,-0.0032043,0.0013733,0.0057983,0.0022888,-0.011292,-0.018158,-0.024261,-0.002594,-0.010529,0.0047302,0.018463,-0.013428,0.0062561,0.0054932,-0.019684,-0.0048828,-0.022736,0.010223,-0.019989,-0.019836,-0.019836
-0.020752,-0.0057983,-0.019073,-0.0027466,-0.0041199,0.0067139,-0.0053406,0.018463,-0.019684,0.005188,-0.0016785,-0.021515,-0.021667,-0.018158,0.002594,-0.0050354,-0.0085449,0.0085449,-0.016479,-0.0042725,-0.011749,0.0010681,0.0016785,0.0039673,0.0013733,-0.0062561,-0.015259,-0.025635,-0.00061035,0.011749,0.00061035,0.012817,-0.0064087,0.00076294,-0.0036621,-0.011749,-0.004425,-0.019379,0.011444,-0.017548,-0.018921,-0.022888
-0.021515,-0.010376,-0.020752,-0.0030518,-0.010223,-0.00091553,-0.00091553,0.016174,-0.0038147,0.0028992,-0.0057983,-0.019226,-0.021667,-0.02121,0.00045776,0.013275,-0.0091553,0.0033569,-0.022278,-0.0016785,0.011597,0.00030518,-0.0036621,0.0028992,0.00030518,-0.0064087,0.0012207,-0.023193,0.0010681,0.019836,-0.0019836,0.010834,-0.0064087,-0.0042725,-0.0038147,0.0059509,-0.0050354,-0.0086975,0.013733,-0.016327,-0.010834,-0.022736
-0.022888,-0.014801,-0.02121,-0.0065613,-0.0099182,-0.0048828,-0.00045776,0.0083923,0.010681,-0.0038147,-0.0041199,-0.015717,-0.020905,-0.013428,-0.0038147,0.021362,-0.0045776,-0.0012207,-0.018311,0.00045776,0.019379,-0.0050354,-0.0039673,-0.0015259,-0.00076294,-0.0076294,0.013428,-0.025177,-0.0062561,0.016174,-0.0064087,0.0027466,-0.0057983,-0.0068665,-0.0038147,0.017395,-0.010071,0.011292,0.0064087,-0.016174,0.0073242,-0.010834
-0.018005,-0.018768,-0.023956,-0.010529,-0.0059509,-0.0085449,-0.0033569,0.0047302,0.019379,-0.0045776,-0.0028992,-0.016174,-0.014343,-0.016632,-0.0013733,0.015411,-0.0047302,-0.0050354,-0.013123,-0.0021362,0.018768,-0.0094604,-0.0038147,-0.0036621,-0.0019836,-0.012207,0.019836,-0.024872,-0.012054,0.013428,-0.0047302,0.0016785,-0.011292,-0.0054932,-0.0091553,0.019531,-0.018311,0.020599,0.0054932,-0.0018311,0.022888,-0.014954
-0.015411,-0.018463,-0.020752,-0.018311,-0.0073242,-0.012207,-0.010834,0.0022888,0.016785,-0.0021362,0,-0.016479,0.0030518,-0.016022,-0.0082397,0.012054,-0.0083923,-0.007019,-0.015564,-0.011292,0.011749,-0.017395,-0.0059509,-0.0067139,-0.0015259,-0.018616,0.015564,-0.007782,-0.019531,0.010834,-0.00045776,-0.0021362,-0.019836,0.0028992,-0.0062561,0.016327,-0.021667,0.021057,-0.0024414,0.017242,0.019684,-0.016479
-0.0019836,-0.019531,-0.015564,-0.021515,-0.0050354,-0.004425,-0.018005,-0.0032043,0.014496,-0.0035095,-0.0024414,0.0021362,0.015869,-0.007019,-0.0039673,0.0061035,-0.0097656,-0.0047302,-0.015869,-0.018005,0.0047302,-0.020905,-0.0041199,-0.0016785,-0.0036621,-0.015869,0.0086975,0.010223,-0.02121,0.0022888,-0.0039673,-0.010376,-0.020599,0.0028992,-0.0057983,0.010376,-0.017853,0.012512,-0.0032043,0.020142,0.014954,0.0036621
0.015564,-0.016327,0.0048828,-0.020752,-0.013123,-0.0041199,-0.019684,-0.0062561,0.0062561,-0.00015259,-0.0074768,0.010223,0.019531,0.011292,-0.0061035,0.0028992,-0.019684,-0.00091553,-0.0019836,-0.020599,0.0065613,-0.019836,0.0013733,-0.0018311,-0.0071716,-0.014038,0.0039673,0.021973,-0.02182,-0.0024414,-0.007019,-0.011902,-0.019836,-0.0036621,-0.0042725,0.0047302,-0.016937,0.0074768,-0.0076294,0.018921,0.010376,0.011749
0.019989,0.0021362,0.018463,-0.024109,-0.020752,-0.0071716,-0.02533,-0.009613,0.0028992,-0.005188,-0.014496,0.012207,0.013885,0.011139,-0.0042725,0.00015259,-0.023346,-0.0013733,0.0099182,-0.020752,0,-0.017853,-0.00076294,-0.0079346,-0.013885,-0.0086975,-0.0010681,0.023956,-0.02533,-0.0059509,-0.011597,-0.0090027,-0.016479,-0.0091553,-0.010071,0.0030518,-0.021515,0.0076294,-0.004425,0.013275,0.0093079,0.013123
0.011597,0.015564,0.020142,-0.019684,-0.018463,-0.014648,-0.022888,-0.0061035,0.00076294,-0.0038147,-0.019226,0.011749,0.0094604,0.011444,-0.0091553,-0.0088501,-0.017395,-0.0030518,0.01236,-0.018158,-0.0038147,-0.018921,-0.0045776,-0.0088501,-0.02182,-0.0080872,-0.004425,0.016785,-0.020142,-0.010529,-0.015411,-0.0054932,-0.016174,-0.015717,-0.018311,-0.0036621,-0.0054932,-0.00015259,0.0013733,0.0065613,-0.00015259,0.012665
0.0088501,0.012207,0.014496,-0.0073242,-0.019379,-0.018158,-0.019531,-0.0042725,-0.0067139,-0.0094604,-0.020294,0.004425,0.0090027,0.0065613,-0.018921,-0.0099182,-0.012207,-0.0097656,0.011444,-0.020752,-0.0074768,-0.011597,-0.01358,-0.01358,-0.019531,-0.010223,-0.0088501,0.011597,-0.004425,-0.013428,-0.022125,-0.0038147,0.0059509,-0.018311,-0.019836,-0.009613,0.0062561,-0.002594,-0.00045776,0.0022888,-0.0039673,0.010529
0.0056458,0.011902,0.010986,0.0082397,-0.021515,-0.016785,-0.002594,-0.0094604,-0.0079346,-0.016632,-0.019073,0.0068665,0.0018311,0.0032043,-0.024414,-0.0074768,-0.011749,-0.019836,0.005188,-0.01709,-0.010529,0.0038147,-0.0177,-0.019531,-0.014343,0.00061035,-0.0086975,0.0067139,0.0080872,-0.0079346,-0.021515,-0.0074768,0.01297,-0.021515,-0.019531,-0.010071,0.0091553,-0.011902,-0.0054932,-0.00061035,-0.0093079,0.0064087
0.0036621,0.0067139,0.0080872,0.02121,-0.012207,-0.017853,0.010529,-0.016937,-0.0062561,-0.020294,-0.022125,0.0018311,-0.0033569,0.0012207,-0.018005,-0.0057983,-0.010529,-0.024261,0.0064087,0.00091553,-0.0041199,0.017853,-0.019836,-0.020752,-0.013275,0.010986,-0.0071716,-0.0015259,0.019226,-0.0056458,-0.017853,-0.015869,0.01236,-0.020905,-0.014954,-0.005188,0.010071,-0.0079346,-0.013733,-0.0045776,-0.0039673,0.0021362
-0.0045776,0.0013733,0.0021362,0.017853,0.0073242,-0.019379,0.014648,-0.021057,-0.0053406,-0.021362,-0.018005,0.00015259,-0.0057983,-0.0010681,-0.011597,-0.0091553,0.0059509,-0.020905,0.0013733,0.015106,-0.0080872,0.016479,-0.018158,-0.019836,-0.012817,0.011597,-0.0030518,-0.0039673,0.013733,-0.0032043,-0.018311,-0.018463,0.014343,-0.023041,-0.013275,-0.0030518,0.009613,-0.0068665,-0.021057,-0.0091553,-0.004425,-0.002594
-0.0082397,0.00015259,-0.0022888,0.014038,0.014648,-0.0083923,0.016022,-0.019073,-0.0027466,-0.020447,-0.0061035,-0.0030518,-0.01297,-0.0018311,-0.017395,-0.0091553,0.010529,-0.019684,-0.0032043,0.017548,-0.0088501,0.014954,-0.016174,-0.020752,-0.011139,0.0093079,-0.002594,-0.010071,0.012817,-0.0086975,-0.015411,-0.014343,0.0094604,-0.018463,-0.0032043,-0.0061035,0.011292,-0.0073242,-0.021973,-0.005188,-0.0086975,-0.0048828
-0.0090027,-0.0035095,-0.005188,0.0074768,0.011139,0.0045776,0.014343,-0.015411,-0.0097656,-0.020294,0.010376,-0.0030518,-0.0080872,-0.0036621,-0.007782,-0.01709,0.01236,-0.016327,-0.0021362,0.015717,-0.018921,0.0091553,-0.015411,-0.017395,0.0035095,0.0073242,-0.0050354,-0.010071,0.0059509,-0.011292,-0.0041199,-0.011597,0.0042725,-0.0033569,0.014954,-0.01358,0.010376,-0.0097656,-0.019226,-0.010223,-0.013123,-0.0056458
-0.0074768,-0.0012207,-0.010223,0.0030518,0.0085449,0.01236,0.010071,-0.020294,-0.016327,-0.011902,0.020447,-0.0019836,-0.0056458,-0.0018311,0.0086975,-0.019989,0.011444,-0.013275,-0.0064087,0.012207,-0.01709,0.0047302,0.0015259,-0.0057983,0.0076294,0.0018311,-0.014801,-0.0080872,0.0015259,-0.016022,0.011902,-0.015411,-0.0038147,0.013275,0.013733,-0.021515,0.0024414,-0.019073,-0.019073,-0.010681,-0.021057,-0.00030518
-0.0048828,-0.0045776,-0.0035095,0.00015259,0.0050354,0.012207,0.005188,-0.016479,-0.020142,0.0027466,0.01709,0.0027466,-0.0074768,0,0.0099182,-0.016022,0.0088501,0.0022888,-0.00091553,0.0053406,-0.016785,0.0027466,0.014648,0.013733,0.011749,0.0015259,-0.020752,-0.0085449,-0.00061035,-0.017242,0.021667,-0.013123,-0.0047302,0.021973,0.010681,-0.020294,-0.0019836,-0.023041,-0.025482,-0.018921,-0.022888,-0.0024414
-0.0079346,-0.0056458,-0.0054932,-0.0041199,0.0042725,0.010529,-0.0012207,0.0019836,-0.017853,0.01358,0.01297,-0.0039673,-0.0082397,-0.0022888,0.0099182,-0.014648,0.0030518,0.01297,-0.0015259,0.0019836,-0.011139,-0.002594,0.016327,0.018921,0.0061035,-0.0038147,-0.016632,-0.0094604,-0.0045776,-0.020905,0.018616,0.0030518,-0.0048828,0.014954,0.0054932,-0.018921,-0.0030518,-0.019226,-0.020294,-0.022278,-0.019684,-0.0045776
-0.0045776,-0.0010681,-0.0074768,-0.007019,-0.00076294,0.0088501,-0.004425,0.011597,-0.015411,0.016022,0.012054,-0.0079346,-0.016479,-0.0028992,0.0076294,-0.014496,-0.0012207,0.017242,-0.0036621,-0.0039673,-0.019226,-0.0082397,0.012054,0.019226,0.009613,-0.012207,-0.016937,-0.020752,-0.0086975,-0.016022,0.012665,0.010834,-0.0042725,0.011902,-0.00045776,-0.015869,-0.0036621,-0.016174,-0.0088501,-0.021973,-0.010529,-0.011749
-0.012054,-0.00076294,-0.012512,-0.007782,-0.0039673,0.0036621,-0.009613,0.012207,-0.01709,0.014191,0.0062561,-0.014496,-0.018768,-0.010529,0.0056458,-0.01236,0.00015259,0.016174,-0.0076294,-0.0054932,-0.015869,-0.0097656,0.0088501,0.014648,0.0062561,-0.0073242,-0.019073,-0.023499,-0.010376,0.0013733,0.0093079,0.010223,-0.0042725,0.0038147,-0.0016785,-0.014954,-0.00091553,-0.01358,0.013428,-0.016632,-0.014343,-0.018768
-0.020142,-0.0027466,-0.015564,-0.0045776,-0.0065613,-0.0021362,-0.012207,0.010681,-0.01358,0.009613,-0.0032043,-0.019379,-0.015869,-0.019379,0.0015259,0.0042725,-0.0076294,0.01358,-0.014954,-0.0097656,0.00061035,-0.0064087,0.0048828,0.007019,-0.0021362,0.00045776,-0.016174,-0.016022,-0.007782,0.010986,0.0059509,0.0083923,-0.005188,0.0057983,-0.0068665,-0.0013733,-0.00091553,-0.012207,0.022736,-0.013123,-0.016174,-0.024261
-0.018768,-0.0064087,-0.018463,-0.004425,-0.0013733,-0.004425,-0.0068665,0.0083923,0.0027466,0.0036621,-0.0071716,-0.021362,-0.016785,-0.019684,-0.0024414,0.01297,-0.0016785,0.0045776,-0.019073,-0.0071716,0.01236,-0.0041199,0.004425,0.0013733,-0.00015259,0.0021362,-0.00061035,-0.016174,-0.0045776,0.010834,-0.0035095,0.0059509,-0.0027466,-0.00076294,-0.0064087,0.011902,-0.0073242,0.0036621,0.019531,-0.01358,-0.0016785,-0.020294
-0.019073,-0.015411,-0.0177,-0.0085449,-0.0022888,-0.0045776,-0.0068665,0.0056458,0.011597,0.0015259,-0.0074768,-0.017395,-0.017853,-0.020447,-0.005188,0.011902,-0.0035095,0.0041199,-0.02182,-0.0054932,0.012512,-0.0053406,-0.0019836,-0.0018311,-0.0039673,0.0018311,0.0094604,-0.01297,-0.0050354,0.0088501,-0.0056458,0.00045776,-0.0048828,-0.0024414,-0.0073242,0.015717,-0.010834,0.013123,0.016022,-0.0079346,0.010376,-0.016632
-0.020294,-0.022125,-0.018768,-0.014954,0.0021362,-0.004425,-0.0068665,0.0030518,0.011749,-0.00061035,-0.0074768,-0.020599,-0.0028992,-0.022583,-0.0076294,0.0091553,-0.00061035,-0.0038147,-0.020599,-0.004425,0.01358,-0.011139,-0.0057983,-0.0057983,-0.005188,-0.0073242,0.019379,-0.0088501,-0.012665,0.0080872,-0.010376,-0.0028992,-0.012665,-0.007782,-0.0019836,0.015411,-0.019989,0.014191,0.0097656,0.0088501,0.013428,-0.020752
-0.0082397,-0.023346,-0.018005,-0.0177,-0.00045776,-0.0032043,-0.009613,-0.0021362,0.010071,-0.0053406,-0.0047302,-0.020752,0.010834,-0.019379,-0.0033569,0.0057983,-0.0048828,-0.0062561,-0.019226,-0.0086975,0.0047302,-0.019379,-0.0080872,-0.013733,-0.0027466,-0.018158,0.01709,0.0054932,-0.020905,0.0019836,-0.0067139,-0.0012207,-0.015259,-0.0088501,0.0013733,0.0073242,-0.022736,0.014496,0.007019,0.011597,0.012512,-0.022888
0.010681,-0.023956,-0.0042725,-0.015717,-0.0021362,0.00076294,-0.016785,-0.0045776,0.0039673,-0.0090027,-0.0082397,-0.010223,0.0083923,-0.015411,-0.0028992,0.0019836,-0.010223,-0.0091553,-0.017395,-0.016022,0.0056458,-0.02121,-0.0074768,-0.007019,-0.0012207,-0.025787,0.012665,0.014038,-0.014648,0.0015259,-0.005188,0.0024414,-0.018768,-0.0076294,-0.0012207,0.0047302,-0.022125,0.0090027,0.0012207,0.012817,0.0099182,-0.0091553
0.013428,-0.021057,0.011597,-0.018768,-0.012054,-0.0035095,-0.016937,-0.0042725,0.004425,-0.0073242,-0.009613,0.0082397,0.013733,0.002594,-0.0035095,0.00045776,-0.018463,-0.0086975,-0.01236,-0.019226,0.0016785,-0.015259,-0.0067139,-0.0035095,-0.005188,-0.026855,0.0062561,0.011597,-0.012665,-0.0033569,-0.0045776,0.0019836,-0.015564,-0.010223,-0.0022888,0.0015259,-0.023193,0.0053406,-0.0013733,0.010071,0.0086975,0.0088501
0.0088501,-0.010223,0.013123,-0.018158,-0.020294,-0.0038147,-0.019531,-0.0042725,0.00030518,-0.0071716,-0.016022,0.019379,0.0086975,0.017548,-0.0062561,-0.0022888,-0.021362,-0.0086975,0.0094604,-0.014801,-0.0015259,-0.013885,-0.0079346,-0.0054932,-0.0085449,-0.022278,-0.00015259,0.009613,-0.014038,-0.0082397,-0.012665,0.0027466,-0.016632,-0.011749,-0.01297,-0.00045776,-0.020752,0,-0.0065613,0.0079346,0.0030518,0.023193
0.010834,0.0094604,0.01236,-0.014343,-0.023041,-0.011292,-0.019226,0.00015259,-0.0036621,-0.0074768,-0.019531,0.014343,0.0047302,0.019989,-0.0094604,-0.0039673,-0.018616,-0.0064087,0.019836,-0.014343,-0.0018311,-0.016785,-0.010834,-0.007019,-0.013885,-0.018311,-0.0057983,0.0050354,-0.012207,-0.007019,-0.016022,0.0018311,-0.019073,-0.01709,-0.017242,-0.0028992,-0.014191,0,-0.0035095,0.0067139,0.0021362,0.02243
0.0073242,0.019379,0.010986,0.0015259,-0.02655,-0.018768,-0.010529,-0.0035095,-0.0039673,-0.0056458,-0.016785,0.011292,-0.0013733,0.016174,-0.014648,-0.0053406,-0.019531,-0.012207,0.019989,-0.015411,-0.0061035,-0.0062561,-0.016937,-0.01236,-0.018463,-0.009613,-0.0083923,0.0038147,0.0036621,-0.0018311,-0.022278,-0.0018311,-0.0054932,-0.021973,-0.020905,-0.0059509,0.004425,-0.0061035,-0.0018311,0.00015259,-0.0042725,0.016785
0.00030518,0.020142,0.0045776,0.01358,-0.02182,-0.023651,0.0065613,-0.0062561,-0.0057983,-0.018158,-0.015259,0.010376,-0.0028992,0.015564,-0.018311,-0.0015259,-0.018616,-0.021057,0.015869,-0.007019,-0.002594,0.011444,-0.0177,-0.017853,-0.019684,-0.0048828,-0.0050354,-0.00076294,0.010376,0.0018311,-0.015717,-0.013428,0.0073242,-0.016632,-0.021515,-0.0059509,0.018158,-0.0045776,-0.0039673,-0.00045776,-0.002594,0.010529
-0.0019836,0.01297,0.0027466,0.010071,-0.019684,-0.024567,0.0099182,-0.011292,-0.0021362,-0.018463,-0.018005,0.0054932,-0.0041199,0.0048828,-0.020752,-0.00061035,-0.016327,-0.019531,0.0073242,0.0064087,-0.0028992,0.011902,-0.013885,-0.014954,-0.017853,0.011444,-0.0030518,-0.0059509,0.0099182,0.0013733,-0.013275,-0.02121,0.016937,-0.014648,-0.024414,-0.00061035,0.018311,-0.0012207,-0.010071,-0.0038147,0.00076294,0.0079346
-0.00030518,0.0073242,-0.0047302,0.0085449,-0.0022888,-0.025482,0.010529,-0.016785,-0.00076294,-0.018616,-0.017548,0.0033569,-0.0024414,0.0039673,-0.020294,-0.0015259,-0.0074768,-0.01358,0.0035095,0.013885,-0.0053406,0.010071,-0.016479,-0.014648,-0.020599,0.022736,0.00076294,-0.0082397,0.010529,-0.0053406,-0.011597,-0.02655,0.013885,-0.011902,-0.020752,-0.0032043,0.015564,-0.0015259,-0.018768,-0.0022888,-0.0032043,0.00061035
-0.0054932,0.0039673,-0.0022888,0.0091553,0.014343,-0.015869,0.0097656,-0.021362,-0.00076294,-0.018158,0.0033569,-0.0059509,-0.0018311,-0.0016785,-0.021667,-0.007782,0.011902,-0.013428,0.00045776,0.015411,-0.0059509,0.007019,-0.015869,-0.016327,-0.019073,0.014343,-0.0032043,-0.004425,0.0050354,-0.010376,-0.014038,-0.024719,0.010223,-0.011597,-0.010529,-0.0059509,0.0086975,-0.0039673,-0.024261,0.00015259,-0.0054932,-0.0067139
-0.0039673,0.0039673,-0.0053406,0.0047302,0.018005,-0.0041199,0.005188,-0.021973,-0.0094604,-0.013733,0.012817,-0.0065613,-0.00076294,-0.0082397,-0.01709,-0.016022,0.01709,-0.018005,-0.0041199,0.0079346,-0.015106,0.0032043,-0.0036621,-0.014038,-0.0047302,0.0097656,-0.012054,0.0015259,0.0016785,-0.015259,0.0027466,-0.024261,0.0038147,0.0056458,0.0054932,-0.015717,0.0050354,-0.0080872,-0.02121,-0.0012207,-0.01236,-0.0067139
-0.0022888,-0.0041199,-0.005188,-0.0016785,0.017853,0.015564,0.0024414,-0.023041,-0.016174,0.00015259,0.010529,-0.009613,-0.0013733,-0.0099182,0.002594,-0.022125,0.012665,-0.0071716,-0.010223,0.0064087,-0.021973,0.002594,0.0091553,0.00045776,0.01297,0.0059509,-0.018616,0.0042725,-0.0032043,-0.018311,0.013275,-0.016937,0.0012207,0.010986,0.019073,-0.020905,0.0013733,-0.014496,-0.010223,-0.0042725,-0.020905,-0.0080872
0.00061035,-0.007019,0.0013733,-0.0027466,0.011444,0.017242,-0.0032043,-0.021667,-0.02243,0.011444,0.01297,-0.0041199,-0.005188,-0.0080872,0.014648,-0.023651,0.015106,0.0086975,-0.0068665,0.0036621,-0.020447,-0.00091553,0.014038,0.0097656,0.022278,-0.00061035,-0.020142,-0.0045776,-0.004425,-0.019684,0.013123,-0.013885,0.0018311,0.011902,0.018311,-0.020447,-0.0036621,-0.019226,-0.015717,-0.010986,-0.026093,-0.0083923
-0.0030518,-0.0093079,0.00030518,-0.007782,0.0041199,0.016022,-0.0035095,-0.0085449,-0.024109,0.011444,0.0086975,-0.0068665,-0.0093079,-0.0064087,0.019226,-0.02121,0.0093079,0.011139,-0.0054932,-0.0039673,-0.020294,-0.0016785,0.0082397,0.013428,0.01709,-0.0050354,-0.018005,-0.0085449,-0.0028992,-0.02533,0.012054,0.0032043,-0.0036621,0.007782,0.013123,-0.018311,-0.0085449,-0.019531,-0.015717,-0.020447,-0.022736,-0.0079346
-0.0074768,-0.0093079,-0.0032043,-0.0021362,0.0053406,0.0091553,-0.0035095,0.0099182,-0.020447,0.0073242,0.0048828,-0.0088501,-0.015259,-0.0091553,0.015106,-0.018311,0.0047302,0.013275,-0.0056458,-0.0059509,-0.018158,-0.0064087,0.0064087,0.011444,0.012817,-0.0064087,-0.02121,-0.021515,-0.0036621,-0.017242,0.0059509,0.016785,-0.0065613,0.0062561,0.011597,-0.024414,-0.0082397,-0.021057,0.0012207,-0.021973,-0.01709,-0.011292
-0.01358,-0.005188,-0.010223,-0.0027466,-0.0024414,0.0064087,-0.0057983,0.017548,-0.020905,0.0035095,-0.00030518,-0.014038,-0.020294,-0.010529,0.010071,-0.016479,0.0016785,0.0086975,-0.007019,-0.004425,-0.016632,-0.0027466,0.0050354,0.0074768,0.0082397,-0.0062561,-0.015869,-0.02533,-0.0027466,-0.0061035,0.0027466,0.020294,-0.0097656,0.0038147,0.0042725,-0.020752,-0.0033569,-0.019989,0.015259,-0.014496,-0.021362,-0.018158
-0.018463,-0.0032043,-0.01709,0.00061035,-0.0050354,0.0057983,-0.0022888,0.017548,-0.015717,0.0047302,-0.0012207,-0.022125,-0.022125,-0.0177,0.0059509,-0.0048828,-0.0056458,0.0071716,-0.015869,-0.0018311,-0.0079346,0.0018311,0.0039673,0.004425,-0.00030518,-0.0022888,-0.010986,-0.023499,-0.0010681,0.0088501,-0.0047302,0.016327,-0.0094604,0.0032043,-0.002594,-0.014496,-0.0042725,-0.018921,0.0097656,-0.019379,-0.018005,-0.024719
-0.021973,-0.0068665,-0.019684,-0.0030518,-0.010834,-0.0018311,0.00076294,0.014954,-0.0048828,0.00061035,-0.0047302,-0.017242,-0.02182,-0.019836,0.0030518,0.011292,-0.0079346,0.0024414,-0.023499,0.00015259,0.010834,-0.0038147,-0.0035095,-0.0012207,-0.0068665,-0.0024414,0.0050354,-0.017548,0.00076294,0.015259,-0.0082397,0.0080872,-0.0038147,0.00091553,-0.0024414,0.0028992,-0.0032043,-0.0086975,0.014343,-0.021667,-0.011139,-0.020447
-0.022583,-0.015564,-0.020294,-0.002594,-0.010834,-0.0035095,-0.0018311,0.0035095,0.012054,-0.0030518,-0.0019836,-0.017548,-0.020905,-0.016022,-0.00076294,0.020905,-0.0093079,-0.0019836,-0.019379,-0.0016785,0.019379,-0.0090027,-0.0050354,-0.0048828,-0.0093079,-0.0073242,0.014801,-0.015106,-0.0054932,0.014954,-0.010986,0.0059509,-0.0057983,-0.00061035,-0.0068665,0.015259,-0.011444,0.010834,0.007782,-0.016937,0.010986,-0.012817
-0.022583,-0.017395,-0.023193,-0.012207,-0.0059509,-0.010834,-0.0036621,0.0073242,0.019531,-0.0062561,-0.00045776,-0.019379,-0.013733,-0.015564,-0.0064087,0.020752,-0.0047302,-0.0061035,-0.012817,-0.0035095,0.020294,-0.010223,-0.0042725,-0.0053406,-0.011292,-0.012817,0.018311,-0.015564,-0.010223,0.014801,-0.0041199,0.00061035,-0.0094604,-0.0036621,-0.0094604,0.018768,-0.018005,0.022278,0.004425,-0.005188,0.020294,-0.01358
-0.015411,-0.018921,-0.020142,-0.017242,-0.007019,-0.0074768,-0.010071,0.0012207,0.015564,-0.0076294,-0.0012207,-0.013885,0.0042725,-0.016022,-0.012054,0.013275,-0.0076294,-0.0048828,-0.015259,-0.0097656,0.012665,-0.017853,-0.0016785,-0.002594,-0.0085449,-0.015106,0.014648,-0.0048828,-0.01709,0.007782,0.0010681,-0.0016785,-0.016937,-0.0028992,-0.0076294,0.015869,-0.020142,0.018463,0.0012207,0.016785,0.020142,-0.014038
0.0019836,-0.020752,-0.013885,-0.02182,-0.0064087,-0.0047302,-0.017548,-0.0041199,0.012207,-0.0038147,-0.0016785,0.00045776,0.015106,-0.0041199,-0.0079346,0.0045776,-0.0097656,-0.0032043,-0.014038,-0.017548,0.0054932,-0.022278,-0.00061035,-0.0018311,-0.0033569,-0.019226,0.01236,0.012512,-0.020294,0.0061035,0.00061035,-0.0080872,-0.014343,-0.0042725,-0.0047302,0.013428,-0.016632,0.014801,-0.0010681,0.019989,0.016785,0.0015259
0.012207,-0.016174,0.0030518,-0.025024,-0.014648,-0.0032043,-0.022736,-0.010223,0.0085449,0.00061035,-0.007782,0.011292,0.0177,0.012665,-0.0028992,0.0028992,-0.018005,0.0010681,0,-0.024261,0.0050354,-0.020752,-0.00076294,-0.0024414,-0.0016785,-0.019379,0.0042725,0.018311,-0.021973,0.0012207,-0.0010681,-0.0062561,-0.015717,-0.0064087,-0.0056458,0.0073242,-0.016632,0.0090027,-0.005188,0.018616,0.011902,0.011902
0.014191,-0.00061035,0.0177,-0.02243,-0.015411,-0.0074768,-0.025024,-0.009613,0.0012207,-0.0019836,-0.013428,0.01297,0.015564,0.012207,-0.0085449,-0.0019836,-0.018005,-0.0021362,0.010071,-0.022888,-0.00061035,-0.020142,-0.0056458,-0.002594,0.0013733,-0.012054,0.00061035,0.01297,-0.021667,-0.0065613,-0.0071716,-0.0056458,-0.016174,-0.011597,-0.011444,0.0053406,-0.018005,0.005188,-0.0024414,0.01709,0.0039673,0.013123
0.016022,0.012207,0.017853,-0.019836,-0.01709,-0.011292,-0.024872,-0.005188,0.0024414,-0.0036621,-0.022583,0.0088501,0.011292,0.011444,-0.0091553,-0.0042725,-0.01709,-0.004425,0.013428,-0.022125,-0.0053406,-0.016937,-0.007782,-0.0088501,-0.011749,-0.0088501,-0.007782,0.0079346,-0.020142,-0.009613,-0.0093079,-0.0045776,-0.013733,-0.019531,-0.021667,-0.0032043,-0.005188,-0.00091553,0.0012207,0.01297,0,0.01358
0.012207,0.012665,0.015869,-0.0042725,-0.018311,-0.018616,-0.019684,-0.0082397,-0.0016785,-0.0071716,-0.022888,0.0085449,0.0065613,0.010986,-0.017242,-0.0091553,-0.014648,-0.010071,0.0097656,-0.016785,-0.0083923,-0.01297,-0.015717,-0.016785,-0.016937,-0.0064087,-0.011902,0.0042725,-0.0067139,-0.013428,-0.016174,-0.0076294,0.0030518,-0.02243,-0.021362,-0.0065613,0.01236,-0.0085449,0.00015259,0.0024414,-0.0050354,0.010071
0.005188,0.012054,0.010223,0.012207,-0.0177,-0.019989,-0.0016785,-0.0062561,-0.009613,-0.014648,-0.019989,0.0032043,0.00076294,0.0062561,-0.020294,-0.0059509,-0.015411,-0.018005,0.0056458,-0.016022,-0.0085449,0.0024414,-0.022125,-0.017242,-0.018005,0.0059509,-0.011292,0.0050354,0.010376,-0.0086975,-0.020294,-0.011292,0.0094604,-0.020599,-0.018005,-0.011597,0.012207,-0.0088501,-0.0019836,-0.0016785,-0.0090027,0.0048828
0.0028992,0.009613,0.0061035,0.013733,-0.011902,-0.020294,0.012817,-0.012054,-0.0088501,-0.019531,-0.020599,-0.00045776,-0.0032043,0.0010681,-0.014954,-0.005188,-0.013275,-0.022278,0.0068665,0.0028992,-0.0057983,0.017548,-0.023041,-0.016632,-0.0177,0.016022,-0.0073242,-0.0021362,0.019226,-0.0019836,-0.021362,-0.017242,0.01236,-0.022278,-0.019073,-0.010071,0.010529,-0.0062561,-0.012054,-0.0065613,-0.0059509,-0.00061035
-0.0021362,0.0027466,0,0.018311,0.0056458,-0.016174,0.014343,-0.019073,-0.0053406,-0.024719,-0.019073,-0.0019836,-0.0079346,-0.0027466,-0.015869,-0.0057983,0.004425,-0.020142,0,0.017395,-0.007019,0.019379,-0.021057,-0.017395,-0.022736,0.014954,-0.0065613,-0.0021362,0.016022,-0.00030518,-0.019989,-0.020752,0.010223,-0.020752,-0.018463,-0.0041199,0.0099182,-0.002594,-0.016327,-0.0073242,-0.0076294,-0.0015259
-0.0042725,0.00045776,-0.0021362,0.011292,0.010681,-0.0093079,0.018616,-0.016632,-0.0073242,-0.022736,-0.0086975,-0.0053406,-0.010223,-0.002594,-0.015411,-0.010529,0.011902,-0.02182,-0.0024414,0.021057,-0.010834,0.016327,-0.017395,-0.020447,-0.020752,0.009613,-0.010223,-0.0073242,0.011597,-0.0053406,-0.018311,-0.016022,0.0073242,-0.018616,-0.0035095,-0.0054932,0.0030518,-0.0050354,-0.024109,-0.0057983,-0.011597,-0.0038147
-0.010071,-0.0067139,-0.0045776,0.0061035,0.011444,0.0065613,0.014801,-0.015869,-0.007019,-0.021667,0.0097656,-0.0054932,-0.0065613,-0.004425,-0.0064087,-0.018616,0.01297,-0.019989,-0.0028992,0.010986,-0.013123,0.012054,-0.011902,-0.017853,-0.0050354,0.0064087,-0.0074768,-0.0079346,0.0061035,-0.018158,-0.0094604,-0.010376,0.0030518,-0.0016785,0.010529,-0.015411,0.0022888,-0.010681,-0.018311,-0.0042725,-0.012665,-0.0036621
-0.0086975,-0.0045776,-0.0099182,0.0015259,0.0091553,0.012054,0.0068665,-0.016785,-0.013428,-0.013123,0.020905,-0.0033569,-0.0054932,-0.0042725,0.0067139,-0.02121,0.011902,-0.015869,-0.0053406,0.0083923,-0.015717,0.0076294,0.0067139,-0.0064087,0.0088501,0.002594,-0.015259,-0.0041199,0.0082397,-0.017853,0.0082397,-0.013885,0.0012207,0.011292,0.010223,-0.020905,-0.0018311,-0.018768,-0.020599,-0.0091553,-0.018158,0.00045776
-0.0050354,-0.0065613,-0.0059509,-0.0010681,0.0080872,0.0099182,0.0010681,-0.015259,-0.017242,0.0045776,0.018005,0,-0.0050354,0.00030518,0.012054,-0.015717,0.0059509,0.00045776,-0.0015259,0.0036621,-0.0177,0,0.017548,0.010986,0.014191,-0.0022888,-0.018921,-0.0013733,0.002594,-0.019531,0.018463,-0.0079346,-0.0024414,0.020599,0.010223,-0.018311,-0.004425,-0.020752,-0.020447,-0.014648,-0.022125,-0.0021362
-0.0065613,-0.0038147,-0.0068665,-0.005188,0.0048828,0.0079346,-0.00076294,0.0028992,-0.016937,0.016632,0.014954,-0.00091553,-0.012512,0.00030518,0.010376,-0.015717,0.0032043,0.014954,0.0012207,0.0036621,-0.014343,-0.0013733,0.016174,0.019073,0.015717,-0.0090027,-0.013123,-0.0028992,0.00076294,-0.020142,0.020905,0.0048828,-0.0065613,0.020599,0.0061035,-0.014648,-0.0082397,-0.016785,-0.020294,-0.027008,-0.019989,-0.0062561
-0.0067139,0.0038147,-0.0088501,-0.0062561,0.0021362,0.0068665,-0.0074768,0.012512,-0.015717,0.016785,0.0059509,-0.0062561,-0.018616,-0.0042725,0.0097656,-0.014496,0.00015259,0.018005,-0.0032043,0.0021362,-0.016479,-0.009613,0.016785,0.017853,0.016785,-0.019531,-0.01236,-0.0093079,-0.0082397,-0.014038,0.012207,0.011749,-0.0073242,0.016327,0.0041199,-0.017548,-0.0022888,-0.014343,-0.0097656,-0.020294,-0.011597,-0.011597
-0.01297,0.00091553,-0.012512,-0.01236,-0.00061035,0.0045776,-0.0091553,0.010834,-0.017242,0.016174,0.005188,-0.013733,-0.018463,-0.0099182,0.0039673,-0.010529,0.00030518,0.015411,-0.005188,-0.005188,-0.014191,-0.010834,0.010986,0.012512,0.012054,-0.021515,-0.017548,-0.017548,-0.0088501,0.0018311,0.0061035,0.010376,-0.0015259,0.0099182,0.0033569,-0.016022,0.00061035,-0.018921,0.009613,-0.014496,-0.011444,-0.020752
-0.019073,0,-0.017853,-0.0071716,-0.0033569,-0.0039673,-0.011902,0.011444,-0.010986,0.010223,0.00076294,-0.017548,-0.017853,-0.018768,0.0042725,0.0054932,-0.0073242,0.011597,-0.015717,-0.0097656,0.00030518,-0.007019,0.0061035,0.0088501,0.0064087,-0.019073,-0.0091553,-0.018921,-0.0074768,0.0097656,0.0062561,0.0061035,-0.0016785,0.0076294,-0.0022888,-0.0010681,0.002594,-0.011597,0.020447,-0.010986,-0.012817,-0.026703
-0.015564,-0.007019,-0.019531,-0.0039673,-0.0038147,-0.0048828,-0.0057983,0.0079346,0.0065613,0.004425,-0.0035095,-0.020599,-0.019226,-0.023499,-0.0013733,0.0097656,-0.0082397,0.0064087,-0.019684,-0.0064087,0.010986,-0.0061035,-0.0018311,0.0030518,-0.002594,-0.01297,0.011444,-0.018616,-0.0028992,0.0094604,-0.0036621,0.0048828,-0.0033569,-0.00030518,-0.0021362,0.010223,-0.0019836,0.0016785,0.02243,-0.010529,-0.0016785,-0.023193
-0.016632,-0.016632,-0.014191,-0.0033569,-0.0024414,-0.0036621,-0.0047302,0.0027466,0.010529,0,-0.0062561,-0.021973,-0.014038,-0.020599,-0.005188,0.011597,-0.002594,0.0036621,-0.019684,-0.005188,0.0097656,-0.0039673,-0.0065613,-0.0064087,-0.0086975,-0.0030518,0.014343,-0.018311,-0.0080872,0.010071,-0.0050354,0.0038147,-0.0033569,-0.0041199,-0.002594,0.011597,-0.0091553,0.015564,0.014954,-0.0093079,0.012054,-0.018768
-0.020294,-0.021973,-0.016937,-0.012207,-0.0019836,-0.0028992,-0.0032043,0.0012207,0.010223,-0.0022888,-0.0083923,-0.020599,-0.0012207,-0.019989,-0.0056458,0.0094604,0.0012207,-0.0016785,-0.022736,-0.0093079,0.013733,-0.0079346,-0.0093079,-0.0065613,-0.010834,-0.0024414,0.01236,-0.01236,-0.010376,0.0027466,-0.0086975,0.00076294,-0.01236,-0.009613,-0.0039673,0.014038,-0.019836,0.014954,0.0068665,0.0088501,0.011444,-0.020294
-0.0076294,-0.022888,-0.018005,-0.020294,0.00015259,-0.0033569,-0.012054,-0.0030518,0.007019,-0.0067139,-0.0082397,-0.020752,0.0091553,-0.022125,-0.0039673,0.0076294,-0.0022888,-0.0073242,-0.019836,-0.011749,0.0080872,-0.017242,-0.010834,-0.005188,-0.0050354,-0.0024414,0.0073242,0.0053406,-0.017853,0.0030518,-0.0015259,0.0010681,-0.019836,-0.010681,-0.0012207,0.011292,-0.022125,0.013428,0.0045776,0.014801,0.010986,-0.019684
0.0088501,-0.023346,-0.0045776,-0.016632,-0.004425,-0.0013733,-0.014496,-0.0050354,0.0065613,-0.010376,-0.0064087,-0.0085449,0.012817,-0.016174,-0.002594,0.0038147,-0.011292,-0.010681,-0.017548,-0.018616,0.0036621,-0.019836,-0.012207,-0.0083923,-0.0016785,-0.0080872,0.007782,0.0086975,-0.019531,-0.0016785,-0.0042725,-0.005188,-0.019684,-0.0076294,-0.0021362,0.0071716,-0.022736,0.0071716,-0.0015259,0.013123,0.0094604,-0.0076294
0.013275,-0.020752,0.012054,-0.018616,-0.013428,0.00015259,-0.018311,-0.0047302,0.0022888,-0.0080872,-0.0080872,0.0097656,0.0086975,0.00015259,-0.0038147,-0.0019836,-0.01709,-0.0057983,-0.009613,-0.021515,0.0013733,-0.014343,-0.0086975,-0.007019,0.00015259,-0.0068665,0.0028992,0.0093079,-0.018616,0.0013733,-0.002594,-0.0019836,-0.021515,-0.0094604,-0.0039673,0.0061035,-0.022125,0.0039673,-0.0018311,0.011749,0.0076294,0.011597
0.011292,-0.0079346,0.014191,-0.016327,-0.019836,-0.0050354,-0.018311,-0.0030518,0,-0.0047302,-0.016937,0.014191,0.0091553,0.016022,-0.0065613,-0.0038147,-0.020599,-0.0062561,0.0053406,-0.014343,-0.0032043,-0.014496,-0.0067139,-0.0082397,-0.00076294,-0.0027466,-0.0033569,0.007019,-0.0177,-0.0032043,-0.0059509,-0.00091553,-0.023041,-0.011902,-0.0054932,-0.00061035,-0.018158,0.00076294,-0.0082397,0.0082397,0.00076294,0.023956
0.0091553,0.0074768,0.0091553,-0.012207,-0.02243,-0.011902,-0.019684,-0.002594,-0.00061035,-0.0036621,-0.019226,0.020142,0.0035095,0.020142,-0.009613,-0.0035095,-0.017853,-0.007019,0.017548,-0.014954,-0.0022888,-0.015717,-0.0074768,-0.0076294,-0.0073242,-0.007782,-0.0028992,0.004425,-0.014496,-0.0064087,-0.017548,0.00030518,-0.017548,-0.018921,-0.014496,-0.005188,-0.012665,-0.0010681,-0.0076294,0.0079346,-0.002594,0.023346
0.0057983,0.016785,0.0074768,0.0036621,-0.024261,-0.014954,-0.012207,-0.0018311,-0.0053406,-0.009613,-0.019531,0.010071,0.0016785,0.016937,-0.014801,-0.0021362,-0.017853,-0.012817,0.017242,-0.012054,-0.0056458,-0.0041199,-0.016174,-0.016174,-0.018158,-0.0097656,-0.0047302,0.0036621,0.0039673,-0.0032043,-0.020447,-0.0045776,-0.0088501,-0.021667,-0.018616,-0.0039673,0.0045776,-0.0039673,-0.0061035,0.00015259,-0.0056458,0.018768
0.0061035,0.0177,0.0079346,0.012207,-0.023499,-0.023346,0.0027466,-0.0065613,-0.0053406,-0.017548,-0.015564,0.0062561,0.00030518,0.007782,-0.019684,0.0010681,-0.018921,-0.017548,0.015869,-0.0086975,-0.0033569,0.0090027,-0.0177,-0.019836,-0.018311,-0.014801,-0.0038147,-0.00076294,0.014801,-0.0022888,-0.020599,-0.010529,0.0083923,-0.0177,-0.022888,-0.0027466,0.01709,-0.0062561,-0.0079346,-0.0032043,-0.0024414,0.010834
-0.0019836,0.012665,0.00076294,0.0093079,-0.020294,-0.021362,0.014954,-0.014343,-0.0028992,-0.015869,-0.018158,0.007019,-0.0022888,0.0062561,-0.020142,-0.00015259,-0.019073,-0.018616,0.0094604,0.010376,0,0.011139,-0.014648,-0.017548,-0.025177,-0.0035095,-0.0033569,-0.0067139,0.011597,0.0012207,-0.014343,-0.019073,0.019379,-0.018311,-0.024719,-0.0027466,0.020142,-0.0016785,-0.012207,-0.0064087,0.00076294,0.005188
-0.0041199,0.0094604,-0.0030518,0.011292,-0.0016785,-0.020752,0.010071,-0.020142,0.0033569,-0.01709,-0.013275,-0.00076294,-0.0082397,0.002594,-0.022736,-0.0022888,-0.0050354,-0.016479,0.0071716,0.010376,-0.0027466,0.012512,-0.016632,-0.013428,-0.024261,0.0057983,-0.0054932,-0.0076294,0.0083923,-0.0050354,-0.017395,-0.024719,0.0177,-0.014343,-0.022125,-0.0028992,0.011139,0.00061035,-0.021362,-0.0035095,-0.00045776,-0.0030518
-0.0064087,0.0056458,-0.0030518,0.0056458,0.012054,-0.019531,0.010529,-0.021667,0.0013733,-0.017853,0.0015259,-0.0050354,-0.002594,-0.0018311,-0.017853,-0.0085449,0.010223,-0.015869,0,0.01236,-0.0086975,0.0093079,-0.01358,-0.015106,-0.028076,0.010986,-0.0061035,-0.0030518,0.0080872,-0.0085449,-0.014343,-0.018921,0.01236,-0.0090027,-0.016022,-0.0073242,0.0068665,-0.0012207,-0.024872,0.00030518,-0.0041199,-0.007782
-0.0047302,-0.0016785,-0.0047302,0.0030518,0.021057,-0.0010681,0.0042725,-0.024261,-0.0088501,-0.015259,0.010986,-0.0083923,0.00015259,-0.0082397,-0.015106,-0.017242,0.018311,-0.017395,-0.0015259,0.005188,-0.01709,0.005188,-0.0048828,-0.01358,-0.016785,0.009613,-0.012054,0.00061035,0.0036621,-0.020447,0.0015259,-0.022888,0.0093079,0.0091553,0.0028992,-0.015564,0.0030518,-0.0073242,-0.019836,-0.0021362,-0.01358,-0.0088501
-0.0067139,-0.0047302,-0.00045776,-0.00015259,0.017548,0.010071,0.0065613,-0.024261,-0.014801,-0.0033569,0.012665,-0.010071,0.0016785,-0.0091553,0.0022888,-0.021362,0.016937,-0.0061035,-0.0099182,0.0062561,-0.02182,0.0021362,0.014038,0.0042725,-0.0015259,0.013275,-0.019684,0.0032043,-0.0015259,-0.023041,0.012512,-0.021667,0.007019,0.015717,0.015869,-0.02243,0.0015259,-0.01709,-0.012817,-0.0042725,-0.021973,-0.004425
-0.0015259,-0.0062561,0.0010681,0,0.013733,0.019379,0.0041199,-0.019989,-0.023651,0.0086975,0.013428,-0.0019836,-0.00091553,-0.0073242,0.01236,-0.019531,0.013123,0.0082397,-0.010223,-0.00030518,-0.018921,-0.0028992,0.01358,0.014343,0.014191,0.010986,-0.021973,0.0022888,-0.0021362,-0.023041,0.010986,-0.016174,0.00045776,0.013733,0.019226,-0.022278,-0.0013733,-0.020142,-0.014954,-0.012665,-0.022583,-0.0068665
-0.0018311,-0.0094604,0.0015259,-0.0041199,0.0053406,0.016785,-0.0047302,-0.0074768,-0.02182,0.0091553,0.0083923,-0.0062561,-0.011139,-0.0059509,0.020294,-0.021973,0.0088501,0.011902,-0.0064087,-0.0024414,-0.018005,-0.0033569,0.011597,0.011597,0.021667,0.0018311,-0.01709,-0.0045776,-0.0059509,-0.024109,0.0067139,0,-0.0027466,0.011597,0.016174,-0.019226,-0.0056458,-0.019684,-0.01358,-0.023651,-0.018921,-0.007019
-0.007782,-0.0039673,-0.0035095,-0.0035095,0.0019836,0.010071,-0.0059509,0.010223,-0.020294,0.012207,0.0041199,-0.0059509,-0.01709,-0.0061035,0.016022,-0.019684,0.0033569,0.012665,-0.0056458,-0.0045776,-0.021362,-0.0074768,0.010986,0.0094604,0.023499,-0.0062561,-0.019836,-0.0090027,-0.005188,-0.020294,0.0067139,0.013428,-0.0056458,0.009613,0.0064087,-0.021057,-0.0076294,-0.019989,0.0019836,-0.027313,-0.014191,-0.010376
-0.012512,-0.005188,-0.011292,-0.0016785,-0.0032043,0.0059509,-0.0045776,0.019226,-0.018768,0.0088501,-0.0010681,-0.012512,-0.019073,-0.011597,0.0088501,-0.018311,-0.00030518,0.0062561,-0.007019,-0.0056458,-0.019226,-0.0079346,0.0047302,0.0090027,0.015259,-0.0094604,-0.020447,-0.019379,-0.0036621,-0.0056458,0.0082397,0.018158,-0.0091553,0.0053406,0.0053406,-0.019073,-0.0050354,-0.020447,0.015106,-0.019531,-0.018921,-0.019531
-0.017242,-0.0035095,-0.017853,-0.0010681,-0.0062561,0.0057983,-0.0022888,0.016785,-0.016632,0.0054932,-0.0024414,-0.017242,-0.022278,-0.017395,0.0059509,-0.0045776,-0.0027466,0.0056458,-0.018616,-0.0054932,-0.0090027,-0.0015259,-0.0022888,-0.00091553,0.0091553,-0.010071,-0.018158,-0.02182,0.00091553,0.010376,0.00061035,0.016022,-0.0093079,-0.002594,0.0021362,-0.013275,-0.0057983,-0.018768,0.019379,-0.017548,-0.018768,-0.022278
-0.02182,-0.0086975,-0.022125,0.00015259,-0.004425,-0.0022888,-0.0019836,0.014496,-0.0038147,0.0030518,-0.0041199,-0.019379,-0.021973,-0.020752,0.0030518,0.01297,-0.0076294,0.0016785,-0.021057,-0.002594,0.0097656,-0.00076294,-0.0067139,-0.00076294,0.0032043,-0.013123,-0.0056458,-0.02243,0.00091553,0.018311,-0.0038147,0.011902,-0.0054932,-0.0062561,-0.0068665,0.0059509,-0.0085449,-0.010376,0.014343,-0.017853,-0.013275,-0.019531
-0.021515,-0.018311,-0.02121,-0.0065613,-0.0064087,-0.0059509,-0.0015259,0.0071716,0.012512,-0.0024414,-0.0065613,-0.018463,-0.02243,-0.017395,-0.0015259,0.019989,-0.0083923,-0.0012207,-0.018768,0.0019836,0.017395,-0.0045776,-0.0056458,-0.0042725,-0.0030518,-0.013275,0.010986,-0.019531,-0.0033569,0.016785,-0.0030518,0.0093079,-0.0082397,-0.0062561,-0.005188,0.017548,-0.010834,0.0076294,0.010529,-0.020447,0.0068665,-0.010223
-0.020447,-0.019073,-0.023804,-0.011902,-0.005188,-0.0090027,-0.0033569,0.0062561,0.016022,-0.0024414,-0.002594,-0.018463,-0.011444,-0.016174,-0.0067139,0.014191,-0.0057983,-0.0036621,-0.013428,-0.0035095,0.016022,-0.011292,-0.0038147,-0.0036621,-0.0073242,-0.014954,0.02182,-0.018921,-0.011444,0.0099182,0.00061035,0.007782,-0.0083923,-0.0027466,-0.0071716,0.019531,-0.02121,0.019684,0.0068665,-0.0038147,0.019073,-0.014038
-0.015869,-0.020905,-0.019989,-0.019989,-0.0057983,-0.011444,-0.0076294,0.0018311,0.013275,-0.0056458,-0.00076294,-0.015411,0.0016785,-0.0177,-0.013123,0.010986,-0.0071716,-0.007782,-0.014496,-0.009613,0.013733,-0.016937,-0.0068665,-0.0073242,-0.011749,-0.020599,0.027008,-0.0073242,-0.019531,0.0067139,-0.0012207,0.0021362,-0.016174,-0.002594,-0.0079346,0.017548,-0.024872,0.019989,-0.00076294,0.016327,0.020447,-0.014038
0.0024414,-0.018616,-0.01358,-0.023193,-0.0067139,-0.0074768,-0.0177,-0.0032043,0.0099182,-0.0035095,-0.00076294,0.0013733,0.016937,-0.007019,-0.0079346,0.005188,-0.0085449,-0.0010681,-0.014648,-0.014496,0.0080872,-0.024261,-0.0053406,-0.0047302,-0.014191,-0.020447,0.023346,0.0099182,-0.02182,0.0045776,0,-0.0056458,-0.016327,-0.0021362,-0.0048828,0.01297,-0.016632,0.013733,-0.0021362,0.021515,0.014801,0.0010681
0.009613,-0.015106,0.0054932,-0.023651,-0.015717,-0.005188,-0.021362,-0.0091553,0.0059509,-0.0024414,-0.0068665,0.011749,0.020752,0.0097656,-0.0067139,0.0042725,-0.01709,0.0032043,0.00030518,-0.018311,0.0057983,-0.02121,-0.0024414,-0.0033569,-0.013733,-0.019226,0.012207,0.0177,-0.024261,-0.0010681,-0.0033569,-0.0088501,-0.016174,-0.0050354,-0.0079346,0.005188,-0.016937,0.0097656,-0.0032043,0.018768,0.014191,0.013885
0.017853,-0.0012207,0.016785,-0.020599,-0.021667,-0.0042725,-0.02533,-0.0091553,0.0033569,-0.0015259,-0.015564,0.011597,0.011902,0.01236,-0.004425,-0.0021362,-0.021667,0.00076294,0.0071716,-0.018616,0.0015259,-0.019684,-0.0054932,-0.0018311,-0.010376,-0.0099182,0.0054932,0.011749,-0.022736,-0.0053406,-0.0074768,-0.0053406,-0.018158,-0.0090027,-0.010223,0.0033569,-0.016174,0.0065613,-0.0056458,0.014343,0.005188,0.015564
0.01236,0.010223,0.017395,-0.022278,-0.019989,-0.012054,-0.020905,-0.007019,0.00030518,-0.0036621,-0.020599,0.0086975,0.010986,0.014343,-0.010681,-0.0039673,-0.01709,-0.0033569,0.010071,-0.018768,-0.0062561,-0.016785,-0.0083923,-0.0062561,-0.0099182,-0.0064087,-0.00061035,0.0076294,-0.018463,-0.0071716,-0.018311,-0.0053406,-0.014343,-0.014343,-0.016174,-0.0021362,-0.0057983,0.0016785,-0.0010681,0.0073242,0.00015259,0.013275
0.0086975,0.01236,0.013885,-0.0074768,-0.016937,-0.015869,-0.018311,-0.0085449,-0.0036621,-0.0076294,-0.02243,0.0080872,0.0036621,0.010071,-0.016785,-0.0062561,-0.015869,-0.011139,0.010834,-0.019073,-0.0067139,-0.013885,-0.01297,-0.013275,-0.012512,-0.010376,-0.0039673,0.0059509,-0.0082397,-0.010529,-0.022736,-0.0088501,0.0024414,-0.019073,-0.02121,-0.0057983,0.010376,-0.0042725,-0.0018311,0.007019,-0.0074768,0.0086975
0.0041199,0.013275,0.014343,0.0076294,-0.017242,-0.018311,-0.0048828,-0.0071716,-0.0088501,-0.016479,-0.023804,0.0079346,0.0021362,0.0068665,-0.018158,-0.0091553,-0.014801,-0.019073,0.009613,-0.016022,-0.0082397,0.0050354,-0.018158,-0.020599,-0.011292,-0.00030518,-0.011444,0.0036621,0.0093079,-0.0091553,-0.020294,-0.010223,0.009613,-0.019531,-0.021515,-0.0080872,0.010834,-0.0086975,-0.0062561,-0.0019836,-0.009613,0.0033569
0.0027466,0.0086975,0.007019,0.021973,-0.010986,-0.017548,0.0086975,-0.012817,-0.0067139,-0.020294,-0.022583,0.0042725,-0.0016785,0.00076294,-0.013885,-0.0042725,-0.01236,-0.019379,0.0068665,0.00015259,-0.0054932,0.016785,-0.020142,-0.020599,-0.0099182,0.013123,-0.015106,0.0019836,0.014343,-0.0053406,-0.013885,-0.018311,0.0080872,-0.019989,-0.021515,-0.0076294,0.012665,-0.0039673,-0.014343,-0.0074768,-0.0074768,0.0041199
-0.0035095,0.0054932,0.00045776,0.016785,0.0085449,-0.019684,0.017548,-0.019073,-0.0050354,-0.019684,-0.018616,-0.00076294,-0.0057983,-0.0041199,-0.016327,-0.0050354,0.0045776,-0.019989,0.00061035,0.014191,-0.0065613,0.019073,-0.019989,-0.020905,-0.012817,0.015869,-0.013885,0.0038147,0.016785,-0.0033569,-0.017395,-0.02243,0.0079346,-0.022736,-0.017242,-0.007019,0.010529,-0.0047302,-0.020142,-0.0094604,-0.0073242,-0.0019836
-0.005188,0.0019836,-0.0010681,0.011597,0.012665,-0.0097656,0.016937,-0.015564,-0.0065613,-0.020142,-0.0071716,-0.005188,-0.011139,-0.0041199,-0.015869,-0.0093079,0.013275,-0.022278,-0.0027466,0.018158,-0.0099182,0.01358,-0.019684,-0.02243,-0.011597,0.012817,-0.01358,-0.0013733,0.01297,-0.0080872,-0.019226,-0.018005,0.0056458,-0.019989,0.00030518,-0.007782,0.0053406,-0.0054932,-0.023499,-0.007782,-0.010376,-0.0090027
-0.0057983,-0.0022888,-0.0086975,0.0047302,0.010223,0.0047302,0.011444,-0.018768,-0.0073242,-0.019226,0.012054,-0.0036621,-0.005188,-0.0042725,-0.0085449,-0.020599,0.013275,-0.018921,-0.0053406,0.014496,-0.017853,0.0083923,-0.010681,-0.014191,0.0057983,0.009613,-0.014648,-0.0064087,0.0061035,-0.018005,-0.011444,-0.015869,-0.00015259,-0.0056458,0.013885,-0.013275,0.00091553,-0.0097656,-0.022736,-0.0085449,-0.014038,-0.0074768
-0.0080872,-0.0032043,-0.010681,0.0038147,0.0086975,0.011597,0.007019,-0.020447,-0.014801,-0.010986,0.019073,-0.0068665,-0.002594,-0.0035095,0.0057983,-0.02182,0.011139,-0.015869,-0.0035095,0.011292,-0.019073,0.0041199,0.0032043,-0.0036621,0.013275,0.0053406,-0.016785,-0.0059509,0.0047302,-0.018311,0.0050354,-0.01709,0.00061035,0.011597,0.016174,-0.021667,0.00061035,-0.01709,-0.018768,-0.010834,-0.018005,-0.0032043
-0.0048828,-0.0032043,-0.0059509,-0.0024414,0.002594,0.013733,0.0028992,-0.015564,-0.020142,0.0050354,0.017548,-0.0010681,-0.0054932,-0.00015259,0.013275,-0.016174,0.0057983,0,0,0.002594,-0.017548,0.00015259,0.018311,0.0086975,0.014954,-0.00076294,-0.016937,-0.0065613,0.004425,-0.014801,0.010986,-0.013123,-0.00091553,0.020294,0.011902,-0.023804,-0.005188,-0.024414,-0.017548,-0.016785,-0.021515,-0.00030518
-0.00091553,-0.0048828,-0.0054932,-0.007019,0.0035095,0.010529,-0.002594,0.0036621,-0.019684,0.018311,0.014801,-0.00061035,-0.011597,0.0013733,0.010223,-0.013733,0.0059509,0.016785,-0.0015259,0.0050354,-0.012817,-0.0041199,0.018463,0.019989,0.010529,-0.0033569,-0.013885,-0.0076294,-0.0027466,-0.0177,0.010986,0.0068665,-0.0035095,0.016174,0.007782,-0.014954,-0.0028992,-0.020142,-0.015411,-0.025024,-0.017853,-0.0028992
-0.0056458,-0.0021362,-0.0056458,-0.0079346,0.00015259,0.0062561,-0.0024414,0.014038,-0.019073,0.019073,0.0061035,-0.0035095,-0.016785,-0.0032043,0.010681,-0.016937,0.00091553,0.02121,-0.0013733,-0.0033569,-0.013885,-0.0068665,0.01358,0.016022,0.0042725,-0.0053406,-0.011597,-0.013733,-0.0033569,-0.018005,0.013885,0.018616,-0.0012207,0.01358,0.0062561,-0.014343,-0.0027466,-0.018005,-0.0079346,-0.02182,-0.011139,-0.0080872
-0.014801,0.0013733,-0.011139,-0.011292,-0.00091553,0.0042725,-0.009613,0.011444,-0.014343,0.015717,0.007019,-0.011749,-0.018921,-0.0094604,0.0067139,-0.011444,-0.0024414,0.013885,-0.0091553,-0.0064087,-0.015564,-0.0099182,0.0088501,0.01358,-0.00076294,-0.0050354,-0.014191,-0.025177,-0.005188,0.0016785,0.0094604,0.014343,-0.0039673,0.009613,-0.0022888,-0.016022,-0.00015259,-0.014496,0.011749,-0.013428,-0.0093079,-0.016937
-0.018616,-0.004425,-0.022278,-0.0056458,-0.00091553,-0.0021362,-0.010529,0.010834,-0.013123,0.010681,-0.0012207,-0.016022,-0.018005,-0.01709,0.0032043,0.0041199,-0.0059509,0.01236,-0.015259,-0.011902,0.0013733,-0.0068665,0.0015259,0.0053406,-0.0032043,-0.0028992,-0.0082397,-0.023499,-0.0065613,0.013275,0.0059509,0.016632,0.00061035,0.0039673,-0.0064087,-0.0028992,-0.0015259,-0.016937,0.021057,-0.0068665,-0.014648,-0.021667
-0.016785,-0.0086975,-0.017853,-0.0067139,-0.002594,-0.0038147,-0.0062561,0.0093079,0.005188,0.0085449,-0.0061035,-0.023346,-0.016785,-0.021057,-0.002594,0.014191,-0.00076294,0.0048828,-0.022888,-0.0088501,0.014191,-0.004425,-0.0018311,0.0047302,-0.0050354,-0.0012207,0.0097656,-0.022736,-0.0056458,0.011292,0.0028992,0.007019,0.00045776,-0.0018311,-0.0035095,0.011749,-0.0016785,-0.00030518,0.017853,-0.0083923,-0.0010681,-0.019379
-0.019073,-0.019073,-0.014801,-0.0035095,0.00015259,-0.0041199,-0.0056458,0.005188,0.010681,0.0012207,-0.0082397,-0.022278,-0.016632,-0.022583,-0.0032043,0.011444,-0.0030518,0.0022888,-0.020294,-0.0056458,0.014954,-0.0062561,-0.0059509,0.00076294,-0.0068665,-0.0050354,0.011444,-0.021973,-0.0039673,0.0067139,0.0036621,0,-0.0047302,-0.0062561,-0.0056458,0.012207,-0.011139,0.015106,0.014191,-0.007019,0.0094604,-0.019531
-0.018463,-0.019836,-0.015869,-0.011902,-0.0010681,-0.0050354,-0.0062561,0.0027466,0.010681,-0.0080872,-0.0086975,-0.022583,-0.0041199,-0.02121,-0.0068665,0.011444,-0.0015259,-0.00045776,-0.015259,-0.0076294,0.010376,-0.011139,-0.0074768,-0.0045776,-0.0073242,-0.01297,0.011139,-0.014191,-0.013275,0.0062561,0.00045776,-0.0035095,-0.012207,-0.010681,-0.0073242,0.01358,-0.020447,0.015717,0.0032043,0.0082397,0.014038,-0.019836
-0.0080872,-0.024567,-0.0177,-0.019073,-0.0021362,-0.0024414,-0.0076294,-0.0013733,0.010681,-0.0088501,-0.0032043,-0.02121,0.010071,-0.017853,-0.0038147,0.0073242,-0.0028992,-0.0032043,-0.018921,-0.0061035,0.007019,-0.017548,-0.010223,-0.0088501,-0.0050354,-0.019531,0.0086975,0.0090027,-0.016937,0.00015259,0.0050354,-0.005188,-0.016174,-0.0076294,-0.0019836,0.010376,-0.021362,0.013885,0.0021362,0.011444,0.012054,-0.014343
0.0085449,-0.025635,-0.0050354,-0.018463,-0.0086975,0.00030518,-0.018005,-0.005188,0.0050354,-0.013733,-0.0057983,-0.011444,0.0097656,-0.016327,-0.0016785,0.005188,-0.0094604,-0.010223,-0.0177,-0.014801,0.0053406,-0.018921,-0.0079346,-0.0083923,0.00045776,-0.022125,0.0061035,0.018311,-0.015717,0.0016785,0.0012207,-0.0032043,-0.02243,-0.0042725,-0.0024414,0.0045776,-0.023193,0.0080872,-0.0012207,0.013123,0.0088501,-0.007019
0.010376,-0.021057,0.0097656,-0.0177,-0.016022,-0.0016785,-0.016632,-0.005188,0.0042725,-0.0082397,-0.0080872,0.007782,0.010376,0.004425,-0.0032043,-0.00076294,-0.018768,-0.004425,-0.012665,-0.015259,-0.0019836,-0.015717,-0.0041199,-0.0039673,-0.0019836,-0.021362,0.0048828,0.016937,-0.014648,0.0010681,-0.0085449,-0.0032043,-0.024719,-0.0080872,-0.0035095,0,-0.023499,0.010071,-0.0021362,0.0067139,0.0071716,0.010376
0.0090027,-0.010681,0.01297,-0.019531,-0.020599,-0.0056458,-0.018311,-0.0064087,-0.00030518,-0.0038147,-0.016327,0.018005,0.0080872,0.016174,-0.0032043,-0.0050354,-0.02121,-0.005188,0.0064087,-0.014648,-0.0035095,-0.016174,-0.0057983,-0.0038147,-0.0035095,-0.01297,-0.0027466,0.011902,-0.014801,-0.00091553,-0.014343,0.002594,-0.025635,-0.010834,-0.010681,0,-0.024109,-0.00061035,-0.0047302,0.0085449,0.00045776,0.022278
0.012054,0.0056458,0.013275,-0.011902,-0.020447,-0.010376,-0.020447,-0.00061035,0.00091553,-0.0083923,-0.020599,0.018311,0.0059509,0.019379,-0.0082397,-0.0067139,-0.017242,-0.0057983,0.019989,-0.01297,-0.0056458,-0.018158,-0.0057983,-0.0071716,-0.0086975,-0.013733,-0.0042725,0.010071,-0.018158,-0.0030518,-0.02533,0.0012207,-0.02121,-0.015717,-0.014801,-0.0042725,-0.017853,-0.0024414,-0.0016785,0.0021362,-0.00030518,0.021515
0.0050354,0.019379,0.0080872,0.0036621,-0.022278,-0.01709,-0.014038,-0.00045776,-0.0021362,-0.011902,-0.015869,0.013123,0.0021362,0.014954,-0.013885,-0.0064087,-0.021515,-0.011444,0.020752,-0.014954,-0.0010681,-0.002594,-0.014191,-0.012512,-0.016327,-0.013885,-0.0080872,0.0041199,0.0024414,0.0010681,-0.029297,-0.0024414,-0.0091553,-0.017395,-0.019989,-0.0059509,0.0016785,-0.0021362,-0.0028992,-0.0054932,-0.0057983,0.01709
0.0041199,0.022125,0.0030518,0.0091553,-0.023193,-0.023956,0.0041199,-0.0045776,-0.0045776,-0.018768,-0.014648,0.0091553,-0.0024414,0.012512,-0.020752,-0.0013733,-0.017242,-0.019836,0.01358,-0.0085449,-0.00076294,0.0086975,-0.020905,-0.021515,-0.019379,-0.010376,-0.0042725,0.0013733,0.01236,0.00061035,-0.024719,-0.011444,0.0036621,-0.014343,-0.026398,-0.0010681,0.018158,-0.0038147,-0.0076294,-0.0038147,-0.0019836,0.0085449
-0.0018311,0.01297,0.0010681,0.010376,-0.020142,-0.024719,0.012054,-0.013733,-0.0032043,-0.016632,-0.018158,0.007019,-0.0056458,0.0053406,-0.018311,0.0012207,-0.016327,-0.019226,0.0083923,0.011292,0.0019836,0.012817,-0.016327,-0.016022,-0.020905,0.0090027,-0.00076294,-0.00091553,0.01236,-0.00076294,-0.013123,-0.018463,0.012054,-0.014496,-0.022583,0.0022888,0.018463,0,-0.010986,-0.0057983,0.00045776,0.0035095
-0.0032043,0.009613,-0.0024414,0.011139,-0.0032043,-0.023956,0.012817,-0.019989,-0.0013733,-0.016327,-0.01297,0.0013733,-0.0053406,0.002594,-0.02243,-0.0018311,-0.0064087,-0.016785,0.0065613,0.010529,-0.0015259,0.010376,-0.017548,-0.012817,-0.021515,0.019379,-0.0013733,-0.0054932,0.011444,-0.0038147,-0.014801,-0.02243,0.016327,-0.016022,-0.023651,-0.0013733,0.0177,0.00061035,-0.021667,-0.0021362,0.00061035,-0.00045776
-0.0039673,0.004425,-0.0062561,0.0048828,0.012665,-0.018005,0.010986,-0.020142,0.00030518,-0.017548,0.00076294,-0.0041199,-0.0033569,-0.0039673,-0.019684,-0.010071,0.011444,-0.013123,0.0016785,0.0088501,-0.010986,0.0085449,-0.016327,-0.014648,-0.02121,0.016327,-0.0022888,-0.0085449,0.010529,-0.012665,-0.014648,-0.02182,0.018921,-0.013123,-0.011292,-0.0056458,0.011749,-0.0035095,-0.021515,-0.0012207,-0.0057983,-0.0032043
-0.005188,0.0010681,-0.0027466,0.0041199,0.021362,-0.00030518,0.0076294,-0.022888,-0.0086975,-0.019379,0.01236,-0.0091553,0.0012207,-0.0062561,-0.019073,-0.016632,0.019836,-0.015564,-0.0035095,0.0080872,-0.01709,0.0057983,-0.0033569,-0.013428,-0.0053406,0.012054,-0.010223,-0.007019,0.0083923,-0.020599,0.0032043,-0.022583,0.012665,0.0042725,0.0079346,-0.01236,0.0076294,-0.0076294,-0.020905,-0.0045776,-0.013275,-0.0094604
-0.0059509,-0.0036621,-0.0035095,-0.00045776,0.017548,0.011902,0.0050354,-0.023346,-0.013733,-0.0030518,0.013123,-0.010071,-0.0010681,-0.0097656,-0.0013733,-0.021362,0.016022,-0.007782,-0.010681,0.0050354,-0.020142,0,0.011292,0.0042725,0.0093079,0.0056458,-0.014038,-0.0013733,0.0016785,-0.023193,0.012512,-0.022583,0.010681,0.010223,0.016327,-0.018158,0.004425,-0.015869,-0.015717,-0.0061035,-0.02121,-0.0061035
-0.00091553,-0.0074768,0.0028992,-0.00045776,0.010071,0.019379,0.0012207,-0.019226,-0.019684,0.012054,0.010681,-0.0045776,-0.0033569,-0.0041199,0.014496,-0.021667,0.013428,0.0064087,-0.0093079,0.00045776,-0.021667,-0.0030518,0.013733,0.011597,0.018768,0.0030518,-0.018921,-0.0053406,-0.0030518,-0.024109,0.018768,-0.014801,0.0036621,0.011597,0.021973,-0.02182,-0.0012207,-0.023193,-0.016632,-0.012817,-0.024719,-0.0083923
-0.0030518,-0.012054,-0.0021362,-0.0038147,0.0088501,0.016785,-0.0015259,-0.0094604,-0.019836,0.012665,0.0054932,-0.0039673,-0.011444,-0.0036621,0.019226,-0.020599,0.0068665,0.014343,-0.0056458,-0.0013733,-0.018311,-0.0057983,0.010529,0.012054,0.016022,-0.0019836,-0.01709,-0.010529,-0.0094604,-0.023651,0.016327,0.002594,-0.0030518,0.0091553,0.015564,-0.020294,-0.0068665,-0.023804,-0.014496,-0.017853,-0.016632,-0.0062561
-0.0032043,-0.010223,-0.0032043,-0.0061035,0.0073242,0.012207,-0.0036621,0.010071,-0.020752,0.013123,0.0021362,-0.0062561,-0.015869,-0.0065613,0.01236,-0.021057,0.0045776,0.013885,-0.0067139,-0.0016785,-0.021515,-0.0050354,0.007019,0.0094604,0.013733,-0.0028992,-0.018616,-0.01358,-0.0094604,-0.025024,0.010986,0.0177,-0.0073242,0.007019,0.0071716,-0.023041,-0.010071,-0.02243,0,-0.019836,-0.015259,-0.011902
-0.01236,-0.0042725,-0.0099182,-0.005188,0.00061035,0.007782,-0.0042725,0.0177,-0.020752,0.0086975,-0.00076294,-0.01236,-0.020142,-0.010681,0.011749,-0.017395,0.0013733,0.009613,-0.011597,-0.0038147,-0.016174,-0.0054932,0.0028992,0.0048828,0.0086975,-0.0093079,-0.019684,-0.018005,-0.0059509,-0.007782,0.0065613,0.023346,-0.011139,0.0048828,0.0039673,-0.02121,-0.0056458,-0.021973,0.01236,-0.019226,-0.019531,-0.021973
-0.020447,-0.0036621,-0.021515,0.00015259,-0.0024414,0.0045776,-0.005188,0.019531,-0.016785,0.0050354,-0.0024414,-0.016937,-0.024109,-0.020752,0.0057983,-0.0032043,-0.0032043,0.0033569,-0.017548,-0.0068665,-0.010071,0.00030518,0.00030518,0.0059509,0.0073242,-0.0082397,-0.016022,-0.018921,0.0015259,0.011597,-0.00061035,0.018921,-0.0074768,-0.0013733,-0.0013733,-0.012817,-0.0032043,-0.016937,0.015564,-0.018921,-0.016937,-0.021057
-0.024109,-0.0056458,-0.020752,0.0012207,-0.009613,-0.00076294,0.0018311,0.014343,-0.0048828,0.00076294,-0.0016785,-0.017548,-0.023346,-0.019226,0.00091553,0.013275,-0.0082397,0.0028992,-0.020447,-0.0015259,0.0080872,0.0027466,-0.0048828,-0.00045776,0.002594,-0.0059509,0.0016785,-0.018616,0.0010681,0.026398,-0.0030518,0.0080872,-0.0059509,0.00030518,-0.0038147,0.0061035,-0.0073242,-0.010681,0.015411,-0.020294,-0.010834,-0.018311
-0.022278,-0.016327,-0.022125,-0.0064087,-0.010376,-0.0042725,0.0012207,0.0094604,0.011444,-0.002594,-0.0050354,-0.018463,-0.016479,-0.016937,-0.0016785,0.017548,-0.0071716,-0.0012207,-0.019989,-0.00061035,0.020142,0,-0.0067139,-0.0036621,-0.0036621,-0.0057983,0.014954,-0.018768,0,0.022278,-0.0059509,0.0033569,-0.0076294,-0.0027466,-0.005188,0.018921,-0.011902,0.011444,0.0086975,-0.019836,0.0073242,-0.012817
-0.023346,-0.018921,-0.024414,-0.013885,-0.0097656,-0.0099182,-0.002594,0.0039673,0.019531,-0.0056458,-0.0013733,-0.019073,-0.012817,-0.014343,-0.0068665,0.017242,-0.0073242,-0.0062561,-0.013428,-0.0030518,0.019836,-0.0083923,-0.0053406,-0.0050354,-0.0091553,-0.0062561,0.021362,-0.012665,-0.009613,0.01358,-0.0035095,0.0013733,-0.014648,-0.0016785,-0.0085449,0.0177,-0.017548,0.021057,0.0028992,-0.0010681,0.020905,-0.013885
-0.018311,-0.019379,-0.022125,-0.018616,-0.0064087,-0.0074768,-0.011749,0.00061035,0.016632,-0.0071716,-0.0019836,-0.014343,0.0035095,-0.015564,-0.0088501,0.014496,-0.0090027,-0.0036621,-0.014496,-0.011597,0.01709,-0.02121,-0.0021362,-0.0039673,-0.0094604,-0.015564,0.015411,-0.0024414,-0.018005,0.007782,-0.0035095,-0.0019836,-0.020142,-0.0010681,-0.0061035,0.017242,-0.024719,0.019989,0.00045776,0.016174,0.019989,-0.013428
-0.0019836,-0.019684,-0.014648,-0.021515,-0.0045776,-0.0053406,-0.019073,-0.0033569,0.009613,-0.0061035,-0.00061035,-0.0018311,0.015717,-0.0057983,-0.0082397,0.0076294,-0.010986,-0.0048828,-0.014648,-0.015869,0.0068665,-0.023041,-0.00091553,-0.0010681,-0.0059509,-0.021057,0.0086975,0.015869,-0.023041,0.0033569,-0.0035095,-0.0018311,-0.020142,-0.00076294,-0.0064087,0.012207,-0.023804,0.016479,-0.0042725,0.023499,0.015259,0
0.015564,-0.016937,0.0032043,-0.023193,-0.01358,-0.0065613,-0.027008,-0.0091553,0.0068665,-0.0027466,-0.0071716,0.010986,0.018768,0.0079346,-0.0030518,0.0032043,-0.018005,-0.00061035,-0.00076294,-0.019989,0.0038147,-0.02121,-0.00091553,-0.0039673,-0.0073242,-0.019531,0.0062561,0.024414,-0.023193,-0.0045776,-0.0048828,-0.010071,-0.0177,-0.004425,-0.0027466,0.0079346,-0.018616,0.0088501,-0.0053406,0.019989,0.0099182,0.013733
0.020447,-0.00061035,0.018005,-0.020142,-0.018463,-0.0074768,-0.023041,-0.0099182,0.0032043,0.00045776,-0.015869,0.014648,0.013885,0.011139,-0.0035095,-0.0019836,-0.024109,0.0012207,0.014496,-0.021515,0.0027466,-0.022125,-0.0039673,-0.0054932,-0.0094604,-0.010834,0.0028992,0.019073,-0.026855,-0.0061035,-0.011902,-0.0082397,-0.017548,-0.007019,-0.0091553,0.0012207,-0.016022,0.0036621,-0.0028992,0.013275,0.0085449,0.013275
0.015411,0.01236,0.018005,-0.021667,-0.014954,-0.011292,-0.023956,-0.0064087,0.0027466,-0.00045776,-0.021973,0.011902,0.0057983,0.014343,-0.0083923,-0.00030518,-0.016022,-0.0022888,0.0099182,-0.02243,-0.0021362,-0.018005,-0.0083923,-0.007782,-0.012054,-0.010986,-0.0042725,0.014038,-0.021973,-0.0080872,-0.019684,-0.0041199,-0.014801,-0.016479,-0.0177,-0.0021362,-0.0048828,0.00015259,0.0019836,0.0064087,0.0030518,0.010376
0.012207,0.012512,0.016785,-0.0062561,-0.018311,-0.017548,-0.01709,-0.0050354,-0.0035095,-0.0090027,-0.020294,0.0082397,0.0035095,0.0082397,-0.01709,-0.0085449,-0.0094604,-0.009613,0.011292,-0.022125,-0.007019,-0.014343,-0.013733,-0.014801,-0.01358,-0.011749,-0.0074768,0.0064087,-0.010223,-0.009613,-0.02121,-0.0071716,0.0027466,-0.021515,-0.016174,-0.0053406,0.012207,-0.0071716,-0.0022888,0.0010681,-0.0053406,0.0068665
0.007782,0.011749,0.010986,0.0094604,-0.020752,-0.015564,-0.0041199,-0.0064087,-0.0071716,-0.016022,-0.020905,0.0056458,0.00076294,0.0039673,-0.019836,-0.0086975,-0.016632,-0.017242,0.010376,-0.014343,-0.0094604,0.0047302,-0.020447,-0.019684,-0.014648,-0.0032043,-0.010376,-0.00091553,0.012665,-0.0062561,-0.02121,-0.010681,0.011139,-0.020905,-0.014343,-0.0091553,0.013733,-0.0086975,0.0010681,-0.0030518,-0.0091553,0.0048828
0.0045776,0.0080872,0.0076294,0.019684,-0.013123,-0.019531,0.0094604,-0.012207,-0.011749,-0.02182,-0.021667,0.00076294,-0.0012207,0.0019836,-0.015411,-0.0053406,-0.012817,-0.021973,0.0071716,0.0018311,-0.0045776,0.015259,-0.01709,-0.019531,-0.015869,0.0094604,-0.0082397,-0.0067139,0.023041,-0.0064087,-0.019684,-0.02121,0.010834,-0.018616,-0.016479,-0.0057983,0.01297,-0.0059509,-0.012665,-0.0062561,-0.0071716,0
-0.0036621,0.0016785,0.0027466,0.016327,0.0041199,-0.019073,0.020447,-0.020447,-0.0062561,-0.023041,-0.020294,-0.0042725,-0.007019,-0.00091553,-0.018005,-0.0053406,0.0015259,-0.02121,0.0012207,0.015564,-0.0085449,0.019379,-0.020447,-0.019989,-0.018463,0.0090027,-0.0064087,-0.0071716,0.019989,-0.0079346,-0.016174,-0.023041,0.012512,-0.020599,-0.016632,-0.0068665,0.0091553,-0.0041199,-0.018921,-0.0045776,-0.0039673,-0.002594
-0.0056458,0.00015259,-0.002594,0.014343,0.012207,-0.0093079,0.014801,-0.016785,-0.0071716,-0.02182,-0.011444,-0.0038147,-0.0062561,-0.007019,-0.016022,-0.011902,0.014343,-0.022736,-0.0021362,0.017853,-0.010681,0.014191,-0.019684,-0.019226,-0.014954,0.009613,-0.0094604,-0.014191,0.016785,-0.01297,-0.01358,-0.018616,0.010071,-0.018158,-0.0027466,-0.0083923,0.0067139,-0.0071716,-0.022736,-0.0028992,-0.0091553,-0.0062561
-0.011139,-0.0022888,-0.0085449,0.0085449,0.0091553,0.0054932,0.010986,-0.018005,-0.0045776,-0.018463,0.011902,-0.0064087,-0.002594,-0.0061035,-0.010376,-0.01709,0.016174,-0.022888,-0.0022888,0.018463,-0.014343,0.011902,-0.01297,-0.018616,-0.0018311,0.0054932,-0.0061035,-0.010986,0.0067139,-0.016174,-0.0071716,-0.015106,0.0027466,-0.0050354,0.0076294,-0.013428,0.0013733,-0.0097656,-0.018921,-0.0033569,-0.014954,-0.0048828
-0.0097656,-0.0047302,-0.010071,0.0054932,0.011597,0.011292,0.0059509,-0.017853,-0.013733,-0.010681,0.019684,-0.0027466,-0.0062561,-0.00076294,0.0048828,-0.024109,0.013275,-0.015106,-0.0064087,0.011292,-0.018616,0.0061035,0.0012207,-0.0035095,0.013733,-0.00076294,-0.012817,-0.0079346,0.0024414,-0.018311,0.010376,-0.016022,0.00061035,0.01236,0.0082397,-0.019379,-0.0038147,-0.018005,-0.018463,-0.0053406,-0.022583,0.0061035
-0.0088501,-0.0041199,-0.0027466,-0.0015259,0.0065613,0.0090027,0.0012207,-0.014191,-0.017853,0.0056458,0.016785,0.00061035,-0.0076294,0.0012207,0.010681,-0.019836,0.0073242,-0.00091553,-0.0010681,0.0065613,-0.019684,-0.00076294,0.016022,0.01236,0.0088501,-0.0059509,-0.017853,-0.007019,-0.0022888,-0.018768,0.019836,-0.0099182,-0.0024414,0.017853,0.0088501,-0.021973,-0.0032043,-0.02121,-0.020142,-0.012207,-0.02182,0.0059509
-0.002594,-0.0057983,-0.0053406,-0.0045776,0.0032043,0.010376,0.00015259,0.0013733,-0.015411,0.019531,0.014038,0.00061035,-0.011597,0.00030518,0.012665,-0.01709,0.005188,0.015411,-0.0019836,0.0019836,-0.014038,-0.0015259,0.013275,0.020752,0.0019836,-0.0010681,-0.011444,-0.007782,-0.0059509,-0.019379,0.018311,0.012054,-0.0038147,0.017853,0.007782,-0.012054,-0.004425,-0.021057,-0.019073,-0.023346,-0.018616,-0.0021362
-0.0047302,-0.0010681,-0.0057983,-0.0076294,-0.0021362,0.0073242,-0.0039673,0.011139,-0.016632,0.021515,0.0065613,-0.005188,-0.020142,-0.0033569,0.0067139,-0.014801,-0.0018311,0.021057,-0.0028992,-0.00091553,-0.011902,-0.0062561,0.012817,0.019989,0.007782,-0.00015259,-0.010681,-0.017395,-0.0088501,-0.016022,0.014038,0.014496,-0.0065613,0.012207,0.0061035,-0.016937,-0.0033569,-0.013123,-0.010529,-0.022888,-0.010681,-0.0091553
-0.0097656,0.00015259,-0.010681,-0.0076294,-0.0024414,0.00091553,-0.0079346,0.01297,-0.017548,0.012207,0.0064087,-0.011444,-0.022583,-0.011444,0.004425,-0.013733,-0.0028992,0.016327,-0.0056458,-0.0041199,-0.011597,-0.0088501,0.009613,0.01358,0.0053406,-0.00076294,-0.013428,-0.015106,-0.010376,0.0022888,0.0068665,0.016632,-0.007019,0.0064087,0.00030518,-0.015259,-0.0015259,-0.014191,0.010376,-0.018311,-0.013733,-0.020142
-0.018768,-0.0033569,-0.019531,-0.0083923,-0.0033569,-0.0030518,-0.012054,0.010986,-0.015564,0.0093079,0.0015259,-0.020294,-0.015869,-0.018158,0.0033569,0.004425,-0.0050354,0.011139,-0.015564,-0.0094604,0.0018311,-0.0053406,0.0038147,0.0097656,0.00061035,0.00061035,-0.010681,-0.017242,-0.004425,0.011749,0.0019836,0.011444,-0.0012207,0.0050354,-0.0010681,0.00030518,-0.00015259,-0.016327,0.019379,-0.016022,-0.01358,-0.02594
-0.017242,-0.0093079,-0.020142,-0.0038147,-0.0019836,-0.002594,-0.0033569,0.0064087,0.0048828,0.0038147,-0.0036621,-0.019226,-0.017242,-0.020599,-0.0033569,0.01358,-0.0042725,0.0071716,-0.021667,-0.0085449,0.0093079,-0.005188,0.0021362,-0.00045776,-0.0019836,0.00015259,0.0018311,-0.013733,-0.0033569,0.011139,-0.00091553,0.0097656,-0.0036621,-0.0028992,-0.0053406,0.0088501,-0.0033569,-0.0024414,0.019531,-0.016022,-0.00045776,-0.023956
-0.019226,-0.017548,-0.016479,-0.0067139,-0.0035095,-0.0057983,-0.0035095,0.0050354,0.011902,0.00045776,-0.0057983,-0.026398,-0.015869,-0.020447,-0.0042725,0.013428,0.0015259,0.00030518,-0.020752,-0.0047302,0.01297,-0.0067139,-0.0059509,-0.0042725,-0.0021362,-0.00061035,0.009613,-0.012817,-0.0028992,0.011749,-0.011139,0.0059509,-0.0061035,-0.0059509,-0.0079346,0.012512,-0.0093079,0.010071,0.01236,-0.014648,0.010681,-0.020142
-0.019989,-0.021515,-0.019531,-0.0091553,-0.0021362,-0.0057983,-0.0059509,0.00030518,0.012054,-0.0018311,-0.0088501,-0.025635,-0.0064087,-0.020447,-0.0036621,0.010986,0.00015259,0,-0.016022,-0.0073242,0.010681,-0.010681,-0.0073242,-0.0076294,-0.0028992,-0.0067139,0.01297,-0.0086975,-0.010834,0.0082397,-0.013275,-0.0015259,-0.011139,-0.011292,-0.0036621,0.011749,-0.020142,0.010834,0.0076294,0.0039673,0.012512,-0.019684
-0.0079346,-0.02182,-0.014191,-0.016937,-0.0024414,-0.0013733,-0.011292,-0.0033569,0.0093079,-0.0076294,-0.0062561,-0.021362,0.010376,-0.023041,-0.0030518,0.0079346,-0.0013733,-0.004425,-0.018311,-0.0090027,0.0079346,-0.019379,-0.0097656,-0.012665,-0.0016785,-0.014343,0.013275,0.004425,-0.020294,0.0036621,-0.007782,-0.0045776,-0.019073,-0.0056458,-0.0013733,0.0061035,-0.020294,0.011749,0.007782,0.014038,0.010529,-0.022888
0.0082397,-0.021973,-0.0064087,-0.018311,-0.0041199,0.0027466,-0.018311,-0.0053406,0.007782,-0.0091553,-0.0053406,-0.010681,0.010681,-0.016479,-0.0019836,0.0054932,-0.0093079,-0.0067139,-0.016022,-0.019226,0.0071716,-0.017242,-0.0085449,-0.01236,0.00091553,-0.018158,0.0076294,0.013733,-0.023651,-0.0018311,-0.0032043,-0.0053406,-0.021515,-0.0047302,0.0016785,-0.0013733,-0.023041,0.0082397,0.00091553,0.014648,0.010376,-0.015259
0.013428,-0.02243,0.0093079,-0.018158,-0.012207,0.0012207,-0.017548,-0.0033569,0.0061035,-0.007019,-0.0085449,0.0080872,0.011139,-0.00045776,-0.0010681,-0.0015259,-0.017548,-0.0082397,-0.011597,-0.02121,0.0010681,-0.015259,-0.0053406,-0.0056458,-0.0018311,-0.018005,0.0032043,0.012817,-0.020142,-0.0027466,-0.0024414,-0.0065613,-0.023804,-0.004425,-0.0030518,-0.00076294,-0.021667,0.0050354,-0.0028992,0.013885,0.0056458,0.0061035
0.013428,-0.011597,0.012054,-0.017548,-0.018463,-0.0054932,-0.019989,-0.0032043,0.00091553,-0.0038147,-0.01236,0.016937,0.0085449,0.015717,-0.0012207,0.00076294,-0.022888,-0.0067139,0.0041199,-0.015717,-0.0053406,-0.014648,-0.0056458,-0.007019,-0.0067139,-0.013733,0.0013733,0.012054,-0.019379,-0.0019836,-0.0016785,-0.0054932,-0.020752,-0.011292,-0.0073242,-0.0024414,-0.019379,0.0019836,-0.0041199,0.009613,-0.0013733,0.020752
0.011597,0.0054932,0.014038,-0.014496,-0.02182,-0.014496,-0.022583,-0.0033569,-0.0053406,-0.0065613,-0.020294,0.018616,0.0042725,0.020294,-0.0079346,-0.004425,-0.020599,-0.007019,0.018768,-0.015564,-0.0057983,-0.015717,-0.0091553,-0.007782,-0.011597,-0.018005,-0.00061035,0.0061035,-0.01236,-0.0018311,-0.012512,-0.0024414,-0.016174,-0.018768,-0.015106,0.00045776,-0.015259,-0.0016785,-0.0061035,0.0057983,-0.0016785,0.025024
0.0033569,0.0177,0.007019,0.0027466,-0.024567,-0.020447,-0.010986,-0.00015259,-0.004425,-0.010986,-0.018463,0.016632,0.0021362,0.018768,-0.015106,-0.0057983,-0.019531,-0.014496,0.02182,-0.018311,-0.0050354,-0.0019836,-0.017242,-0.016937,-0.014191,-0.020142,-0.0021362,0.0012207,0.0030518,-0.0021362,-0.020599,-0.0059509,-0.0074768,-0.018616,-0.019836,-0.00091553,0.00091553,-0.002594,-0.0053406,0.0013733,-0.0061035,0.014648
0.0021362,0.015564,0.005188,0.012207,-0.021973,-0.02182,0.0033569,-0.0047302,-0.0041199,-0.012665,-0.015259,0.009613,-0.0022888,0.011292,-0.020294,-0.0015259,-0.018921,-0.0177,0.014343,-0.0094604,0.00061035,0.011597,-0.017853,-0.016937,-0.019226,-0.014038,-0.0048828,-0.00030518,0.013733,0.0035095,-0.017548,-0.010071,0.011902,-0.014496,-0.020905,-0.00061035,0.014954,-0.0064087,-0.012512,-0.0015259,-0.0073242,0.010376
0.00045776,0.013275,0.0028992,0.011292,-0.019836,-0.023651,0.0091553,-0.011597,-0.0033569,-0.017548,-0.014648,0.0041199,-0.0019836,0.0079346,-0.022125,0.00061035,-0.016327,-0.020142,0.010376,0.0053406,0.0030518,0.010529,-0.014801,-0.016022,-0.019379,0.0053406,-0.0012207,-0.0035095,0.0085449,0.00091553,-0.011902,-0.019684,0.019989,-0.013275,-0.021515,-0.0010681,0.019379,-0.0013733,-0.014648,-0.0057983,-0.0019836,0.007782
-0.0045776,0.0076294,-0.0010681,0.010681,-0.0030518,-0.024872,0.01236,-0.022583,-0.0024414,-0.017548,-0.013275,0.0013733,-0.002594,0.0048828,-0.020294,-0.0041199,-0.0062561,-0.013275,0.0080872,0.011597,-0.0010681,0.013123,-0.014801,-0.012207,-0.020447,0.016632,-0.00015259,-0.0071716,0.0042725,-0.0013733,-0.016479,-0.021515,0.020294,-0.013885,-0.020294,-0.0022888,0.017853,0.00091553,-0.024719,-0.002594,-0.00076294,0.0012207
-0.0076294,0.0045776,-0.0038147,0.0042725,0.012817,-0.019226,0.0099182,-0.022736,-0.0032043,-0.018921,0.00091553,-0.0065613,-0.0022888,-0.0012207,-0.020905,-0.0093079,0.01297,-0.012054,-0.00045776,0.010834,-0.0059509,0.0057983,-0.01236,-0.013275,-0.019226,0.015411,-0.0056458,-0.0074768,0.0030518,-0.0093079,-0.018311,-0.018768,0.014191,-0.01709,-0.013123,-0.0057983,0.01358,-0.0061035,-0.027618,0.0018311,-0.0036621,-0.0061035
-0.0045776,0.0013733,-0.0041199,0,0.018463,-0.004425,0.0065613,-0.021973,-0.0099182,-0.015564,0.010376,-0.012054,-0.0030518,-0.0073242,-0.016937,-0.019531,0.020599,-0.015869,-0.002594,0.010071,-0.015717,0.00015259,-0.004425,-0.011597,-0.0073242,0.007782,-0.014648,-0.0039673,0.0053406,-0.016632,0.0013733,-0.018158,0.0083923,0.0015259,0.0054932,-0.014191,0.0053406,-0.011139,-0.018768,0.0010681,-0.0088501,-0.0088501
-0.0039673,0.00030518,-0.0021362,-0.0030518,0.016327,0.011139,0.0056458,-0.021515,-0.01709,-0.00091553,0.0099182,-0.0094604,-0.00061035,-0.010681,0.00015259,-0.022736,0.014954,-0.0094604,-0.0068665,0.0076294,-0.02121,0.0027466,0.011749,0.0061035,0.007019,-0.00091553,-0.01709,-0.0039673,0.0042725,-0.027008,0.011749,-0.019073,0.0059509,0.011139,0.015869,-0.018311,0.00091553,-0.014191,-0.012817,-0.0048828,-0.018005,-0.0071716
-0.0027466,-0.0048828,-0.00030518,-0.0012207,0.011139,0.015869,-0.00091553,-0.021362,-0.018311,0.011139,0.011444,-0.0035095,-0.0064087,-0.0048828,0.012817,-0.018158,0.011902,0.0061035,-0.010223,0.0016785,-0.020294,-0.0019836,0.013733,0.01297,0.019531,0.0016785,-0.022888,-0.0019836,0.0032043,-0.026703,0.013428,-0.016937,-0.00091553,0.007019,0.019684,-0.021057,-0.0038147,-0.021973,-0.010834,-0.013733,-0.020599,-0.007019
-0.0032043,-0.010681,-0.00061035,-0.0048828,0.0093079,0.015259,-0.0038147,-0.010681,-0.019073,0.012665,0.0080872,-0.0048828,-0.0094604,-0.0064087,0.020599,-0.020294,0.0073242,0.01236,-0.0064087,-0.0042725,-0.020752,-0.0033569,0.0073242,0.012207,0.017395,0.0010681,-0.02243,-0.0027466,0.0024414,-0.022888,0.0076294,0.00061035,-0.0032043,0.010529,0.012207,-0.024719,-0.0073242,-0.019073,-0.01297,-0.019531,-0.016479,-0.0080872
-0.0045776,-0.0094604,-0.0065613,-0.0038147,0.0053406,0.011597,-0.0056458,0.009613,-0.021515,0.0086975,0.0073242,-0.0039673,-0.015106,-0.0059509,0.015411,-0.019531,0.0053406,0.010071,-0.0054932,-0.0038147,-0.02182,-0.0053406,0.0080872,0.011902,0.011597,0.0012207,-0.022125,-0.016632,0,-0.020905,0.0032043,0.014801,-0.0090027,0.0079346,0.012054,-0.022125,-0.010376,-0.018311,0.0028992,-0.024872,-0.013123,-0.012054
-0.010376,-0.0050354,-0.010376,-0.0045776,0.0027466,0.007019,-0.0054932,0.017853,-0.02121,0.0080872,0.0027466,-0.012512,-0.021973,-0.010681,0.010681,-0.016632,-0.00091553,0.0061035,-0.0093079,-0.0032043,-0.018921,-0.0028992,0.0050354,0.0056458,0.0030518,-0.00061035,-0.020142,-0.018463,-0.00091553,-0.010223,-0.00061035,0.018005,-0.010529,0.0062561,0.0035095,-0.020447,-0.0079346,-0.019989,0.012665,-0.018768,-0.020905,-0.020599
-0.020599,-0.0057983,-0.017242,0.0033569,-0.0022888,0.0038147,-0.00030518,0.016174,-0.016785,0.0074768,-0.00061035,-0.019379,-0.020752,-0.016327,0.0057983,-0.0076294,-0.0050354,0.0064087,-0.016479,-0.0010681,-0.0079346,0.0027466,0,0.00045776,-0.00076294,-0.0012207,-0.014496,-0.018921,-0.0035095,0.0085449,-0.0033569,0.016937,-0.0056458,0.002594,0.0013733,-0.013733,-0.0042725,-0.020142,0.013275,-0.020447,-0.019684,-0.022888
-0.022736,-0.01297,-0.021973,0,-0.0086975,-0.0010681,0.00076294,0.01358,-0.007019,0.002594,-0.0033569,-0.0177,-0.02182,-0.018768,0.002594,0.009613,-0.010071,0.0039673,-0.019226,0.0038147,0.011444,0.0012207,-0.0057983,-0.0059509,-0.0039673,-0.0059509,0.0032043,-0.020752,-0.0053406,0.016479,0.0016785,0.012817,-0.0056458,0.0019836,-0.0028992,0.0016785,-0.0035095,-0.010529,0.010681,-0.025177,-0.013123,-0.020447
-0.022736,-0.016174,-0.023956,-0.007019,-0.010376,-0.0050354,0.0012207,0.0076294,0.012054,0,-0.0079346,-0.018158,-0.019836,-0.014191,-0.0054932,0.015869,-0.0076294,0.00015259,-0.018463,0.002594,0.019379,-0.0039673,-0.0032043,-0.0065613,-0.0050354,-0.0085449,0.016632,-0.02182,-0.0057983,0.016479,0.0022888,0.0047302,-0.0042725,-0.0018311,-0.0068665,0.019073,-0.0076294,0.007019,0.010223,-0.019073,0.0027466,-0.0091553
-0.021667,-0.01709,-0.023956,-0.011292,-0.0073242,-0.0067139,-0.0030518,0.0054932,0.019379,-0.0048828,-0.0021362,-0.020294,-0.015869,-0.013733,-0.0042725,0.017548,-0.005188,-0.0036621,-0.010529,-0.00076294,0.020752,-0.013275,-0.0083923,-0.011749,-0.010376,-0.013275,0.024109,-0.015411,-0.015717,0.011749,0.00061035,0.0012207,-0.014801,-0.0048828,-0.010223,0.019989,-0.017548,0.018311,0.007019,-0.0032043,0.016632,-0.012665
-0.017548,-0.016785,-0.021667,-0.016479,-0.0053406,-0.0067139,-0.0091553,0,0.015717,-0.0082397,0.00076294,-0.017548,0.0030518,-0.015106,-0.0093079,0.012207,-0.0086975,-0.0053406,-0.01297,-0.0050354,0.013885,-0.016632,-0.0041199,-0.013428,-0.0045776,-0.02182,0.013885,-0.0012207,-0.022125,0.0053406,0.0012207,-0.00045776,-0.019989,0.00076294,-0.0048828,0.016479,-0.019531,0.0177,0.0022888,0.0177,0.019379,-0.015564
-0.0042725,-0.018921,-0.015564,-0.018005,-0.0065613,-0.0067139,-0.019684,-0.0036621,0.011749,-0.0039673,-0.0019836,0.00091553,0.019226,-0.0090027,-0.0068665,0.0074768,-0.011139,-0.0018311,-0.011444,-0.013275,0.010071,-0.021515,-0.0018311,0.00061035,-0.0033569,-0.023804,0.0065613,0.015869,-0.023499,0.0064087,-0.0018311,-0.0054932,-0.018158,-0.0024414,-0.0061035,0.010834,-0.017395,0.014801,0.00076294,0.026398,0.016022,-0.0019836
0.01358,-0.016937,0.0015259,-0.023651,-0.014496,-0.0039673,-0.023651,-0.0082397,0.0068665,0,-0.0086975,0.012054,0.020752,0.0074768,-0.0041199,0.0048828,-0.015411,-0.0016785,-0.0030518,-0.019531,0.0062561,-0.018005,0.0016785,0.0065613,-0.0041199,-0.019684,0.0015259,0.021057,-0.018158,0.00076294,-0.0010681,-0.0086975,-0.018616,-0.0030518,-0.007782,0.0065613,-0.016632,0.012207,-0.0050354,0.019836,0.011444,0.011902
0.019684,-0.0013733,0.017548,-0.02243,-0.015259,-0.0068665,-0.025635,-0.0097656,0.0065613,-0.00061035,-0.015106,0.010986,0.013733,0.012512,-0.0079346,0.00061035,-0.024567,-0.0013733,0.010986,-0.017242,0.0016785,-0.019684,-0.004425,0.0042725,-0.0071716,-0.011749,0.00076294,0.017548,-0.019073,-0.0012207,-0.0086975,-0.0032043,-0.018768,-0.009613,-0.013885,0.0018311,-0.017395,0.0067139,-0.0039673,0.015259,0.0080872,0.0099182
0.016937,0.011292,0.019531,-0.020447,-0.018311,-0.013428,-0.026093,-0.0053406,-0.0015259,-0.0042725,-0.018921,0.013428,0.01236,0.010986,-0.011444,-0.0030518,-0.018463,-0.0064087,0.015106,-0.022583,-0.0045776,-0.019531,-0.0088501,-0.0038147,-0.014496,-0.0027466,-0.0022888,0.0099182,-0.015717,-0.0061035,-0.017242,-0.0045776,-0.017242,-0.015717,-0.020905,-0.0027466,-0.0085449,0.0019836,-0.0036621,0.0085449,0.00076294,0.01297
0.013123,0.013123,0.015717,-0.007019,-0.018311,-0.016785,-0.022888,-0.0048828,-0.0045776,-0.0064087,-0.018616,0.009613,0.0021362,0.0085449,-0.016174,-0.0083923,-0.014191,-0.010681,0.0094604,-0.02121,-0.0094604,-0.014038,-0.019226,-0.0094604,-0.019836,-0.0085449,-0.0048828,0.004425,-0.0030518,-0.007782,-0.02243,-0.0056458,-0.00045776,-0.023651,-0.019989,-0.0086975,0.0097656,-0.0018311,-0.0024414,0.0032043,-0.0021362,0.0064087
0.00091553,0.0088501,0.011444,0.0067139,-0.017242,-0.019073,-0.0038147,-0.0057983,-0.0074768,-0.014496,-0.02121,0.0033569,0.0045776,0.005188,-0.018158,-0.010834,-0.011444,-0.018463,0.0045776,-0.019073,-0.0061035,0.0039673,-0.020447,-0.015411,-0.014496,-0.00015259,-0.0071716,0.00015259,0.0094604,-0.004425,-0.023193,-0.010681,0.012512,-0.02182,-0.021667,-0.012512,0.014343,-0.010223,-0.0038147,-0.00045776,-0.005188,0.0057983
0.0016785,0.0054932,0.0057983,0.018616,-0.012817,-0.019531,0.0099182,-0.013275,-0.0073242,-0.020142,-0.02243,-0.0019836,-0.0036621,0.0027466,-0.015106,-0.0053406,-0.013123,-0.018921,0.0056458,-0.0030518,-0.0080872,0.015717,-0.02243,-0.019989,-0.010529,0.010986,-0.010529,-0.0039673,0.016479,-0.0033569,-0.017853,-0.021057,0.011139,-0.024109,-0.019226,-0.0059509,0.015411,-0.0091553,-0.01236,-0.0076294,-0.0050354,0.0018311
0,0.0028992,0.0012207,0.017853,0.0056458,-0.019531,0.015564,-0.020599,-0.0054932,-0.024719,-0.019379,-0.0010681,-0.0068665,-0.0036621,-0.015869,-0.0083923,0.0061035,-0.018463,0.0010681,0.012512,-0.0050354,0.018005,-0.024261,-0.020752,-0.013123,0.014343,-0.0061035,-0.0076294,0.016937,-0.0050354,-0.019379,-0.026245,0.011902,-0.021057,-0.019073,-0.0062561,0.010529,-0.0045776,-0.018616,-0.0094604,-0.0035095,0.0019836
-0.0036621,-0.00076294,-0.0033569,0.011444,0.010376,-0.0090027,0.017853,-0.018921,-0.0080872,-0.024261,-0.010223,-0.0041199,-0.010376,-0.0056458,-0.015564,-0.0093079,0.012817,-0.017395,-0.0022888,0.017548,-0.009613,0.017853,-0.019531,-0.023804,-0.016785,0.0088501,-0.0048828,-0.0099182,0.011139,-0.012054,-0.018005,-0.019226,0.0053406,-0.018311,-0.00045776,-0.0062561,0.0059509,-0.0016785,-0.022125,-0.0085449,-0.0059509,-0.004425
-0.010223,0,-0.0090027,0.0090027,0.011597,0.007019,0.010681,-0.016937,-0.0065613,-0.020905,0.0090027,-0.0045776,-0.0057983,-0.0042725,-0.0093079,-0.016937,0.012207,-0.019836,-0.0067139,0.014496,-0.014496,0.011292,-0.01709,-0.017853,0.00030518,0.0064087,-0.0061035,-0.0082397,0.0083923,-0.018158,-0.011597,-0.012665,0.0050354,-0.0036621,0.013275,-0.015259,0.005188,-0.010834,-0.019226,-0.0036621,-0.011292,-0.0010681
-0.009613,-0.0027466,-0.010986,0.00045776,0.0091553,0.014191,0.0083923,-0.018311,-0.013428,-0.011902,0.020752,-0.0024414,-0.0028992,-0.0016785,0.007019,-0.018768,0.010529,-0.016632,-0.0039673,0.012817,-0.020599,0.0061035,0.0048828,-0.011597,0.0099182,-0.0013733,-0.01358,-0.0083923,0.0033569,-0.016479,0.0088501,-0.011139,0.00015259,0.015259,0.015564,-0.021362,-0.0012207,-0.018921,-0.015717,-0.0076294,-0.022736,0.0032043
-0.0039673,-0.0048828,-0.0041199,-0.0016785,0.0086975,0.011749,0.0012207,-0.013428,-0.018921,0.0033569,0.020752,0.0018311,-0.0030518,0.00015259,0.011749,-0.018158,0.0053406,-0.0010681,-0.0015259,0.0056458,-0.019684,0.0013733,0.016174,0.0056458,0.010071,-0.0067139,-0.019989,-0.0067139,0.00091553,-0.021057,0.017548,-0.0093079,-0.0022888,0.02182,0.011749,-0.019684,-0.0048828,-0.022278,-0.018463,-0.01297,-0.024872,0.00091553
-0.0059509,-0.0027466,-0.0039673,-0.005188,0.0024414,0.011597,0.0013733,0.0057983,-0.016327,0.017395,0.016937,0.00076294,-0.010681,-0.0027466,0.011292,-0.01358,0.0038147,0.015106,0.0016785,0.0016785,-0.012665,-0.0013733,0.02121,0.01709,0.010681,-0.0050354,-0.014191,-0.0085449,-0.0027466,-0.019836,0.019073,0.0094604,-0.0010681,0.018158,0.0085449,-0.013885,-0.0059509,-0.021973,-0.018311,-0.020599,-0.020905,-0.0056458
-0.0059509,-0.0012207,-0.0027466,-0.0064087,0.0013733,0.007019,-0.0033569,0.012207,-0.014954,0.016479,0.010376,-0.002594,-0.016937,-0.0061035,0.010529,-0.013733,0.00091553,0.018005,-0.0010681,-0.0041199,-0.015717,-0.0047302,0.018768,0.017548,0.0035095,0.00091553,-0.014343,-0.01297,-0.0054932,-0.017853,0.014038,0.015411,-0.00015259,0.014801,0.0028992,-0.015106,-0.0045776,-0.01236,-0.01236,-0.020905,-0.012817,-0.0090027
-0.011139,-0.0018311,-0.015411,-0.011597,-0.0041199,0.0056458,-0.0050354,0.0099182,-0.016479,0.010071,0.0039673,-0.014191,-0.019989,-0.011597,0.004425,-0.012512,-0.0012207,0.017242,-0.010834,-0.0045776,-0.014191,-0.010071,0.010071,0.015564,-0.00061035,0.005188,-0.014801,-0.019073,-0.010986,0.00091553,0.010986,0.01236,-0.0021362,0.0082397,0.0018311,-0.015411,-0.0021362,-0.01297,0.011749,-0.016479,-0.0099182,-0.020142
-0.019684,-0.004425,-0.015869,-0.0057983,-0.0054932,-0.0028992,-0.0097656,0.0093079,-0.014038,0.010376,-0.0033569,-0.018158,-0.016327,-0.015411,0.0050354,0.0012207,-0.0047302,0.011902,-0.016022,-0.009613,-0.00015259,-0.0080872,0.0071716,0.009613,-0.0041199,0.0065613,-0.0073242,-0.019684,-0.0067139,0.011139,0.0050354,0.0091553,0.0016785,0.0015259,-0.0024414,-0.0015259,-0.0027466,-0.016937,0.020599,-0.010681,-0.013733,-0.027466
-0.016022,-0.0091553,-0.017242,-0.0068665,-0.0057983,-0.0059509,-0.0050354,0.0099182,0.004425,0.0061035,-0.0061035,-0.023651,-0.021667,-0.02243,-0.0022888,0.014801,-0.0032043,0.0079346,-0.021973,-0.0065613,0.011902,-0.0062561,0.0041199,0.0030518,-0.0024414,0.0056458,0.010834,-0.013733,-0.007782,0.013123,0.004425,0.0068665,-0.00091553,-0.00091553,-0.0032043,0.01236,-0.0013733,-0.0032043,0.019989,-0.014038,-0.0042725,-0.023499
-0.14099,-0.14282,-0.14282,-0.12497,-0.12207,-0.13443,-0.12207,-0.11398,-0.099335,-0.12497,-0.14206,-0.14969,-0.13718,-0.1445,-0.12909,-0.11703,-0.12039,-0.12054,-0.14343,-0.13733,-0.11841,-0.1416,-0.12329,-0.11322,-0.12802,-0.12848,-0.11993,-0.13306,-0.099945,-0.1265,-0.15625,-0.1152,-0.14664,-0.15488,-0.15137,-0.1033,-0.16373,-0.14786,-0.17715,-0.17578,-0.17426,-0.19196
0.090485,0.089722,0.092316,0.10178,0.11429,0.10696,0.11276,0.11749,0.12451,0.10803,0.10681,0.093231,0.12543,0.10544,0.12527,0.13565,0.12375,0.12131,0.11963,0.12939,0.14526,0.12085,0.12436,0.13123,0.13641,0.12604,0.15442,0.13245,0.12787,0.14755,0.14313,0.14771,0.14084,0.14313,0.15244,0.16235,0.15762,0.18265,0.17731,0.18204,0.19058,0.15274
0.05188,0.038452,0.044098,0.042572,0.058441,0.057983,0.05188,0.059967,0.073395,0.053864,0.053711,0.039673,0.076752,0.042572,0.063934,0.072937,0.058289,0.059967,0.051117,0.059662,0.073853,0.049438,0.053253,0.060577,0.063019,0.039825,0.081787,0.071869,0.048065,0.072327,0.063171,0.065002,0.045776,0.061188,0.074921,0.078125,0.065918,0.094757,0.088196,0.10345,0.10483,0.06546
0.039062,0.010986,0.026245,0.014496,0.022736,0.029755,0.014496,0.026093,0.03891,0.02182,0.028076,0.025482,0.045624,0.0177,0.038147,0.038452,0.024719,0.024872,0.016632,0.017242,0.040436,0.015411,0.02594,0.025635,0.037689,0.0061035,0.04364,0.049744,0.015411,0.036163,0.0354,0.028839,0.012665,0.034485,0.037231,0.041351,0.023193,0.05188,0.045624,0.06073,0.06012,0.032196
0.029907,-0.0039673,0.023651,0.00076294,0.0061035,0.014191,0.0012207,0.010986,0.018921,0.007019,0.0093079,0.023651,0.028839,0.0177,0.015411,0.016479,0.00091553,0.010529,0.0059509,-0.0022888,0.018616,0.0015259,0.0088501,0.013123,0.018768,-0.0067139,0.019989,0.032959,-0.00076294,0.017242,0.014038,0.019226,-0.0050354,0.0090027,0.015411,0.021057,0.002594,0.027924,0.020447,0.038605,0.0354,0.031281
0.0177,-0.0061035,0.015411,-0.013885,-0.013733,-0.0027466,-0.01709,0.0019836,0.0050354,-0.0032043,-0.012512,0.023041,0.010986,0.019226,-0.002594,-0.0012207,-0.016479,-0.002594,0.0091553,-0.0082397,-0.00030518,-0.0074768,-0.0039673,-0.0032043,0.0041199,-0.013428,-0.00091553,0.017242,-0.014954,0.0015259,-0.0085449,0.0057983,-0.023346,-0.0067139,-0.0028992,0.0041199,-0.011597,0.0090027,0.0030518,0.018158,0.014343,0.025482
0.0041199,0.0032043,0.0074768,-0.018311,-0.02594,-0.018921,-0.022736,-0.0073242,-0.0064087,-0.010376,-0.025787,0.015869,0.0012207,0.014954,-0.011597,-0.0086975,-0.022125,-0.011292,0.016022,-0.020599,-0.010376,-0.015869,-0.015411,-0.015411,-0.012665,-0.030212,-0.010529,0.00045776,-0.018768,-0.012207,-0.026398,-0.0091553,-0.026398,-0.024872,-0.023804,-0.0076294,-0.02243,-0.0054932,-0.010071,-0.0016785,-0.0024414,0.017242
-0.0019836,0.010986,-0.0022888,-0.0068665,-0.028992,-0.028229,-0.024567,-0.010529,-0.01358,-0.020294,-0.025787,0.0042725,-0.010986,0.007782,-0.024567,-0.01297,-0.027466,-0.022278,0.01297,-0.025024,-0.015869,-0.01236,-0.026703,-0.025177,-0.027466,-0.040588,-0.019226,-0.010071,-0.012054,-0.013885,-0.034485,-0.016479,-0.024872,-0.032043,-0.036011,-0.014191,-0.0091553,-0.014191,-0.017395,-0.0094604,-0.015869,0.0082397
-0.009613,0.0082397,-0.0045776,0.00076294,-0.033417,-0.031281,-0.0054932,-0.019073,-0.015259,-0.024109,-0.027313,-0.0064087,-0.012512,-0.00076294,-0.034637,-0.014038,-0.030212,-0.028687,0.0076294,-0.022278,-0.015564,0.00045776,-0.028687,-0.03067,-0.030975,-0.037689,-0.024719,-0.015869,-0.0033569,-0.011597,-0.031128,-0.026093,-0.0064087,-0.033569,-0.039368,-0.012665,0.0038147,-0.017395,-0.022278,-0.015411,-0.013123,-0.0015259
-0.015259,-0.0010681,-0.0088501,0,-0.029907,-0.03067,0.00030518,-0.029297,-0.011139,-0.027161,-0.024719,-0.0064087,-0.018311,-0.0050354,-0.031281,-0.011444,-0.02594,-0.033875,0.0010681,-0.0065613,-0.012512,0.0013733,-0.027161,-0.029297,-0.031128,-0.0038147,-0.02243,-0.019379,-0.00061035,-0.013428,-0.02533,-0.034027,0.010681,-0.032043,-0.032806,-0.010223,0.0054932,-0.016632,-0.022278,-0.019379,-0.015717,-0.0027466
-0.010071,-0.0021362,-0.0094604,0.00091553,-0.016327,-0.031586,0.0016785,-0.029297,-0.011597,-0.02655,-0.022125,-0.0099182,-0.015869,-0.007782,-0.033112,-0.015717,-0.017853,-0.025787,-0.0039673,-0.0018311,-0.016785,0.00030518,-0.028381,-0.02121,-0.032959,0.018616,-0.010681,-0.018921,-0.00091553,-0.012054,-0.024567,-0.037384,0.0053406,-0.031281,-0.031586,-0.0080872,0.0041199,-0.017548,-0.031128,-0.015259,-0.013733,-0.011597
-0.0177,-0.00091553,-0.010986,-0.00045776,0.00061035,-0.027161,0.0018311,-0.030823,-0.0090027,-0.022583,-0.0067139,-0.012817,-0.014496,-0.011139,-0.031128,-0.016785,0.0036621,-0.022583,-0.010681,0.0068665,-0.017242,-0.0018311,-0.029755,-0.021667,-0.030518,0.020294,-0.0057983,-0.019073,-0.0012207,-0.018768,-0.026093,-0.032043,0.0047302,-0.025177,-0.020599,-0.011902,-0.0057983,-0.015411,-0.031586,-0.0083923,-0.014954,-0.012817
-0.012207,-0.0039673,-0.0062561,-0.0022888,0.010071,-0.011292,-0.0027466,-0.032501,-0.010986,-0.02182,0.0068665,-0.016479,-0.009613,-0.014954,-0.021973,-0.021973,0.015106,-0.019531,-0.010223,0.00030518,-0.02243,-0.0039673,-0.015106,-0.019684,-0.016785,0.015259,-0.014496,-0.014648,-0.0016785,-0.025024,-0.011444,-0.028381,-0.0012207,-0.0057983,-0.0041199,-0.016022,-0.0016785,-0.021362,-0.025177,-0.010071,-0.021667,-0.019531
-0.0068665,-0.0065613,-0.007782,-0.007019,0.014801,0.0056458,-0.00045776,-0.028839,-0.019836,-0.0064087,0.0085449,-0.015717,-0.010986,-0.013733,-0.0086975,-0.028687,0.01358,-0.011597,-0.017548,-0.0016785,-0.02594,-0.0074768,0.0016785,-0.0059509,-0.0010681,0.0071716,-0.021057,-0.0068665,-0.0071716,-0.023193,0.0036621,-0.029297,0.0010681,0.0050354,0.011444,-0.024109,-0.0054932,-0.024567,-0.0177,-0.013733,-0.032501,-0.010681
-0.0035095,-0.0062561,-0.00076294,-0.0091553,0.010376,0.017853,-0.0073242,-0.025787,-0.021973,0.013428,0.010223,-0.010986,-0.0056458,-0.016022,0.0094604,-0.02533,0.013123,0.0033569,-0.012054,-0.0019836,-0.024567,-0.0071716,0.0013733,0.010529,0.015717,0.0082397,-0.023346,-0.010376,-0.010223,-0.024567,0.0071716,-0.020294,-0.004425,0.010681,0.017395,-0.024872,-0.0097656,-0.027008,-0.013428,-0.019379,-0.026093,-0.012665
-0.0028992,-0.0097656,-0.0027466,-0.010986,0.0085449,0.01358,-0.007019,-0.011444,-0.022736,0.011292,0.0083923,-0.0074768,-0.010834,-0.0076294,0.016785,-0.021515,0.0054932,0.01297,-0.0074768,-0.004425,-0.018158,-0.0074768,0.0086975,0.014343,0.013885,-0.0042725,-0.023346,-0.0074768,-0.0082397,-0.019684,0.0033569,-0.0074768,-0.0064087,0.010376,0.012665,-0.023956,-0.0085449,-0.019989,-0.02121,-0.021362,-0.024261,-0.014648
-0.0050354,-0.0038147,-0.0038147,-0.0067139,0.0039673,0.010071,-0.0045776,0.011444,-0.02243,0.010681,0.0062561,-0.0086975,-0.016937,-0.007782,0.01297,-0.018921,0.007019,0.011902,-0.010529,-0.0053406,-0.015869,-0.0062561,0.0045776,0.016327,0.014191,-0.01236,-0.023956,-0.013733,-0.0065613,-0.014648,0.0042725,0.014038,-0.0068665,0.0054932,0.0097656,-0.027771,-0.0085449,-0.017853,-0.0015259,-0.023499,-0.015411,-0.016022
-0.010376,0.00061035,-0.012512,-0.0054932,0.0035095,0.0079346,-0.0088501,0.019989,-0.0177,0.012817,0.0048828,-0.013428,-0.021973,-0.014496,0.0088501,-0.016022,0.0062561,0.011444,-0.010986,0,-0.019531,-0.0030518,0.0082397,0.0079346,0.010834,-0.010529,-0.023041,-0.022888,-0.0039673,-0.010223,0.0067139,0.018311,-0.0086975,0.0050354,0.012817,-0.021667,-0.0067139,-0.02182,0.009613,-0.015869,-0.018768,-0.023651
-0.017853,-0.0053406,-0.011902,0,-0.0048828,0.0061035,-0.0012207,0.019684,-0.014191,0.0091553,0.0013733,-0.018005,-0.021667,-0.016937,0.010071,-0.005188,0,0.010834,-0.01297,-0.002594,-0.0056458,0.002594,0.0064087,0.0076294,0.0091553,-0.0086975,-0.016479,-0.024872,0.0074768,0.010223,0.00045776,0.023193,-0.0018311,-0.00061035,0.0036621,-0.015564,-0.0047302,-0.020599,0.018921,-0.018921,-0.016785,-0.023346
-0.02121,-0.0048828,-0.020752,-0.00045776,-0.0079346,0.0012207,0.0021362,0.014648,-0.0047302,0.0028992,-0.00045776,-0.015411,-0.016327,-0.015411,0.0039673,0.015564,-0.0062561,0.0071716,-0.021362,0.0028992,0.0080872,-0.0028992,0.00015259,0.0030518,0.0076294,-0.0042725,-0.0018311,-0.021362,0.0073242,0.020752,-0.00030518,0.019989,-0.0015259,0.0021362,-0.0012207,0,-0.00061035,-0.011139,0.017548,-0.016327,-0.011139,-0.018616
-0.021057,-0.010376,-0.014496,-0.0038147,-0.0082397,0.0016785,0.0013733,0.0091553,0.014343,0.0039673,-0.00091553,-0.014496,-0.016174,-0.012665,0.00030518,0.020752,-0.0016785,0.0038147,-0.014496,0.0045776,0.022888,0,0.0016785,-0.0035095,0.00076294,-0.0067139,0.018616,-0.013428,0.0022888,0.019226,-0.00076294,0.013428,-0.0068665,-0.0032043,-0.0018311,0.023956,-0.0065613,0.0067139,0.011902,-0.014191,0.010223,-0.0067139
-0.021362,-0.012512,-0.01709,-0.0074768,-0.0064087,-0.0048828,-0.0045776,0.0071716,0.022278,-0.00015259,0.0062561,-0.016174,-0.012054,-0.0090027,-0.0022888,0.021667,0.00091553,0.00076294,-0.011902,0.0010681,0.023193,-0.0065613,0.00076294,-0.0030518,-0.0056458,-0.010223,0.026245,-0.010376,-0.0039673,0.015717,0.00030518,0.0099182,-0.0091553,0.0018311,-0.0065613,0.029449,-0.014191,0.024719,0.0080872,0.0016785,0.02121,-0.005188
-0.01297,-0.013428,-0.016937,-0.01236,-0.005188,-0.0068665,-0.0082397,0.004425,0.018768,0.00045776,0.0082397,-0.014191,0.0094604,-0.01358,-0.007019,0.013428,-0.0030518,0.00061035,-0.010071,-0.007019,0.016785,-0.014038,0.0039673,0.0015259,-0.0097656,-0.013275,0.023651,-0.0015259,-0.011444,0.013428,0.0030518,0.0076294,-0.011444,0.00045776,-0.0021362,0.023346,-0.013428,0.020905,0.0033569,0.016174,0.021057,-0.010529
-0.0035095,-0.014038,-0.014801,-0.022736,-0.0042725,-0.0013733,-0.013123,0.00045776,0.014801,-0.0027466,-0.002594,-0.00045776,0.017853,-0.0039673,-0.0024414,0.010376,-0.0061035,-0.0028992,-0.01297,-0.010071,0.014801,-0.015869,0.0036621,0.0021362,-0.0057983,-0.014343,0.01709,0.010834,-0.0177,0.0082397,0.0021362,0.0038147,-0.01358,0.0010681,-0.00061035,0.016022,-0.014038,0.023346,-0.0016785,0.028076,0.019379,0.0038147
0.015259,-0.014343,0.0027466,-0.024414,-0.012665,0.0012207,-0.023804,-0.0054932,0.010834,0.0018311,-0.0045776,0.011902,0.022888,0.010223,-0.0013733,0.0085449,-0.015259,0.0041199,-0.0038147,-0.018616,0.011139,-0.01709,0.0028992,0.0024414,-0.0068665,-0.014038,0.014496,0.014496,-0.016785,0.002594,-0.0036621,-0.00045776,-0.01358,0.0042725,-0.0039673,0.012817,-0.013275,0.013428,0.00045776,0.023346,0.015106,0.012207
0.022583,0.00061035,0.015717,-0.018311,-0.016174,-0.0024414,-0.021362,-0.0028992,0.0019836,-0.00045776,-0.012207,0.016327,0.014801,0.015869,-0.0050354,0.0039673,-0.018921,-0.0018311,0.01358,-0.018311,0.0027466,-0.018463,0.0015259,-0.0021362,-0.0091553,-0.012054,0.011292,0.014343,-0.018616,-0.0035095,-0.010834,0.0024414,-0.011292,-0.004425,-0.011292,0.0041199,-0.014038,0.0099182,0.0010681,0.015106,0.0086975,0.018158
0.017548,0.014038,0.02182,-0.018921,-0.014801,-0.0085449,-0.021667,0.00061035,0.0041199,-0.0022888,-0.019226,0.0082397,0.014648,0.013123,-0.0080872,-0.0012207,-0.014954,-0.0036621,0.014648,-0.020447,0,-0.013428,-0.0068665,-0.0045776,-0.015259,-0.0057983,0.002594,0.010376,-0.014343,-0.0064087,-0.020447,-0.0061035,-0.012665,-0.012665,-0.015106,-0.0024414,-0.0090027,0.0083923,0.0068665,0.0088501,0.004425,0.015564
0.014496,0.009613,0.015564,-0.010071,-0.015717,-0.015259,-0.018158,-0.002594,-0.0033569,-0.010376,-0.013885,0.007782,0.0099182,0.012512,-0.016022,-0.0062561,-0.0085449,-0.010529,0.013733,-0.016327,-0.0097656,-0.015717,-0.0079346,-0.019836,-0.020447,-0.0085449,-0.0028992,0.0036621,-0.0036621,-0.011902,-0.023041,-0.011139,0.0010681,-0.014038,-0.017548,-0.0082397,0.0061035,0.00015259,0.00061035,0.0033569,-0.0021362,0.014038
0.012054,0.011139,0.015564,0.010834,-0.013733,-0.014801,-0.00076294,-0.0054932,-0.0094604,-0.018616,-0.018005,0.0053406,0.0032043,0.010681,-0.017548,-0.0082397,-0.009613,-0.018311,0.011749,-0.0177,-0.0042725,0.0042725,-0.019226,-0.019531,-0.018616,-0.0027466,-0.0088501,0.0030518,0.010071,-0.0042725,-0.024872,-0.013885,0.014038,-0.020752,-0.016785,-0.0079346,0.013428,-0.0042725,-0.0013733,-0.0019836,-0.011902,0.0083923
0.0053406,0.0079346,0.0068665,0.017548,-0.014801,-0.01709,0.0093079,-0.013428,-0.0042725,-0.021667,-0.021057,-0.0018311,0.0028992,0.0047302,-0.011749,-0.0036621,-0.010529,-0.024261,0.0062561,0.00015259,-0.0079346,0.016785,-0.018005,-0.023346,-0.014954,0.0083923,-0.011139,0.0047302,0.019836,-0.0047302,-0.013428,-0.02655,0.013885,-0.018921,-0.016022,-0.0062561,0.013275,-0.0073242,-0.014954,-0.0047302,-0.007782,0.004425
-0.0010681,0.0013733,0.0033569,0.015869,0.0027466,-0.018005,0.020599,-0.018768,-0.0045776,-0.021973,-0.017853,-0.00091553,-0.0035095,0.0012207,-0.011902,-0.0073242,0.0016785,-0.018158,0.0033569,0.013885,-0.0083923,0.022583,-0.019836,-0.022125,-0.018463,0.012207,-0.0094604,-0.0032043,0.010986,-0.0093079,-0.017395,-0.021667,0.010071,-0.019836,-0.021973,-0.0032043,0.007782,-0.0065613,-0.018921,-0.010071,-0.0079346,-0.0028992
0.0015259,0.00091553,-0.0038147,0.013733,0.012665,-0.010376,0.020752,-0.020905,-0.0091553,-0.022888,-0.012665,-0.0027466,-0.0090027,-0.0019836,-0.011597,-0.011597,0.011749,-0.022736,-0.00091553,0.018158,-0.014648,0.012665,-0.018616,-0.020294,-0.016785,0.015411,-0.012512,-0.0056458,0.01297,-0.0083923,-0.018616,-0.019836,0.012207,-0.017853,-0.007782,-0.0080872,0.0062561,-0.0041199,-0.024261,-0.0048828,-0.015106,-0.002594
-0.0080872,-0.0013733,-0.007019,0.0073242,0.011139,0.0041199,0.013428,-0.018005,-0.0071716,-0.017395,0.0079346,-0.0076294,-0.0050354,-0.007019,-0.010834,-0.019836,0.011597,-0.020142,-0.0016785,0.017853,-0.019684,0.0086975,-0.014954,-0.020752,0.00030518,0.014496,-0.01358,-0.0030518,0.0067139,-0.014954,-0.010529,-0.011902,0.0035095,-0.009613,0.0085449,-0.01709,0.0028992,-0.010071,-0.021362,-0.0067139,-0.014038,-0.0033569
-0.0099182,-0.0021362,-0.0086975,0.0059509,0.011597,0.0099182,0.0041199,-0.017395,-0.016632,-0.013733,0.018158,-0.0015259,-0.0086975,-0.0024414,0.007782,-0.021057,0.013885,-0.01709,-0.0065613,0.010071,-0.023804,0.0054932,-0.0018311,-0.016022,0.012512,0.010834,-0.019684,-0.0059509,0.0080872,-0.015411,0.009613,-0.010986,-0.0015259,0.012207,0.009613,-0.022125,-0.0036621,-0.016937,-0.016022,-0.0080872,-0.020599,-0.0027466
-0.0045776,-0.0042725,-0.0074768,-0.00091553,0.0080872,0.0097656,0.0030518,-0.017548,-0.02182,0.0050354,0.023041,-0.0013733,-0.0073242,0.0010681,0.011139,-0.018921,0.0050354,-0.0041199,-0.0024414,-0.00076294,-0.020142,0.0027466,0.01358,0.0061035,0.012207,0.00091553,-0.019226,-0.0048828,0.0048828,-0.016022,0.02243,-0.010376,-0.004425,0.020294,0.012207,-0.023193,-0.002594,-0.021973,-0.020599,-0.018463,-0.025787,-0.00091553
-0.0042725,-0.0030518,-0.007019,-0.0047302,0.0030518,0.0094604,-0.0027466,0.00045776,-0.020599,0.018768,0.017395,-0.0013733,-0.013885,-0.00091553,0.013275,-0.013885,0.0062561,0.015564,-0.0039673,0.0021362,-0.013275,-0.0019836,0.014648,0.014954,0.0090027,-0.0024414,-0.015411,-0.0079346,0.00061035,-0.014191,0.027008,0.0053406,-0.0033569,0.015564,0.0094604,-0.015717,-0.0056458,-0.012817,-0.022736,-0.022583,-0.019989,-0.0024414
-0.010071,-0.0032043,-0.0067139,-0.010681,-0.0022888,0.0061035,-0.0038147,0.013123,-0.01358,0.016937,0.0061035,-0.007782,-0.02182,-0.0091553,0.009613,-0.012512,-0.00030518,0.019989,-0.0015259,-0.0024414,-0.010681,-0.0036621,0.011749,0.015411,0.0088501,-0.0032043,-0.010529,-0.02121,-0.007019,-0.02121,0.014954,0.013123,-0.0085449,0.010223,0.005188,-0.012665,-0.0061035,-0.010529,-0.01236,-0.024109,-0.014038,-0.015564
-0.017242,0.00030518,-0.012054,-0.0093079,-0.004425,0.0042725,-0.011139,0.010223,-0.012665,0.012207,0.002594,-0.016327,-0.02121,-0.01358,0.0054932,-0.014496,-0.0054932,0.016327,-0.010071,-0.0090027,-0.015106,-0.013275,0.0073242,0.010681,0.0012207,-0.0067139,-0.013428,-0.023193,-0.009613,-0.0061035,0.009613,0.014954,-0.0015259,0.0059509,-0.0015259,-0.018463,0.0018311,-0.014648,0.0016785,-0.019073,-0.010071,-0.024109
-0.023651,-0.0061035,-0.02182,-0.0064087,-0.0056458,-0.0039673,-0.0090027,0.0093079,-0.014954,0.007782,-0.0028992,-0.020905,-0.015869,-0.018921,0.0010681,0.00076294,-0.0061035,0.011444,-0.017548,-0.0079346,-0.0057983,-0.0094604,0.0028992,0.0074768,-0.0018311,-0.002594,-0.01236,-0.019073,-0.0093079,0.0091553,0.0059509,0.0093079,-0.0033569,0.0010681,-0.0056458,-0.0054932,-0.0022888,-0.012512,0.021515,-0.010071,-0.012207,-0.024414
-0.016937,-0.0088501,-0.02243,-0.0050354,-0.0067139,-0.0039673,-0.0057983,0.0056458,0.0027466,0.0027466,-0.0047302,-0.024414,-0.019379,-0.024414,-0.0022888,0.007782,-0.0067139,0.0073242,-0.021362,-0.0068665,0.0064087,-0.0038147,-0.00076294,0.005188,-0.0056458,0.0010681,0.0061035,-0.014038,-0.0097656,0.0074768,0.0010681,-0.00030518,-0.0053406,0.00030518,-0.0048828,0.0088501,-0.0039673,-0.00091553,0.018921,-0.014496,-0.0032043,-0.026093
-0.021057,-0.016632,-0.017548,-0.0079346,-0.0030518,-0.0042725,-0.0076294,0.0050354,0.009613,-0.0015259,-0.0093079,-0.024109,-0.019226,-0.018311,-0.0053406,0.010986,-0.0039673,0.0032043,-0.024872,-0.0082397,0.0090027,-0.0057983,-0.002594,-0.0016785,-0.010071,-0.0027466,0.010223,-0.016632,-0.012207,0.0053406,-0.0080872,0.00061035,-0.007019,-0.0016785,-0.0090027,0.012665,-0.012665,0.011444,0.014191,-0.014496,0.0033569,-0.0177
-0.019379,-0.024414,-0.017242,-0.014801,0.00045776,-0.0047302,-0.0094604,-0.0019836,0.0094604,-0.0048828,-0.009613,-0.023041,-0.0071716,-0.02121,-0.0076294,0.010223,-0.0022888,-0.004425,-0.016785,-0.0082397,0.0067139,-0.014038,-0.0071716,-0.007019,-0.009613,-0.012512,0.010681,-0.0094604,-0.019226,0.0015259,-0.014038,-0.0099182,-0.013123,-0.0061035,-0.0064087,0.0099182,-0.017548,0.012054,0.0061035,0.0047302,0.014038,-0.020447
-0.01297,-0.022888,-0.019226,-0.021515,-0.0019836,-0.0035095,-0.014801,-0.0045776,0.0091553,-0.0073242,-0.0057983,-0.022888,0.0088501,-0.018921,-0.0067139,0.0065613,-0.004425,-0.0073242,-0.019531,-0.014954,0.0067139,-0.021667,-0.011139,-0.0099182,-0.0019836,-0.016327,0.009613,-0.00061035,-0.020294,0.0015259,-0.014343,-0.004425,-0.020905,-0.0042725,-0.00045776,0.010071,-0.023804,0.0067139,0.0073242,0.016174,0.012512,-0.024872
0.0045776,-0.027161,-0.0071716,-0.018768,-0.009613,0.00061035,-0.019836,-0.0062561,0.0064087,-0.0079346,-0.0073242,-0.011902,0.0091553,-0.0177,-0.004425,0.00091553,-0.015564,-0.011902,-0.018158,-0.020294,0.0062561,-0.02243,-0.012817,-0.0082397,-0.0012207,-0.017548,0.007782,0.0088501,-0.019684,-0.0012207,-0.014648,-0.0073242,-0.024261,-0.0048828,-0.0042725,0.0050354,-0.019989,0.0065613,-0.00045776,0.0088501,0.0088501,-0.016937
0.010376,-0.021057,0.0061035,-0.016022,-0.016632,-0.0015259,-0.018311,-0.0030518,0.0030518,-0.0071716,-0.010376,0.0073242,0.010986,-0.0021362,-0.0027466,-0.0021362,-0.019684,-0.0067139,-0.014954,-0.023193,0.00076294,-0.018311,-0.0074768,-0.0062561,-0.0016785,-0.013733,0.0061035,0.015411,-0.011444,-0.0018311,-0.010529,-0.00030518,-0.022888,-0.0091553,-0.004425,-0.00076294,-0.022125,0.0022888,-0.0074768,0.0073242,0.0065613,0
0.013275,-0.011902,0.012665,-0.016785,-0.019989,-0.011749,-0.019836,-0.0012207,-0.0010681,-0.0048828,-0.018768,0.018616,0.0074768,0.014191,-0.0062561,-0.0032043,-0.02533,-0.0050354,0.00076294,-0.0177,-0.0018311,-0.018005,-0.0059509,-0.0061035,-0.004425,0.0030518,0.0061035,0.016479,-0.014038,0.00015259,-0.010986,0.0028992,-0.023804,-0.011444,-0.014038,-0.0015259,-0.021362,-0.00061035,-0.0074768,0.0035095,0.0033569,0.018463
0.0093079,0.0013733,0.01297,-0.018616,-0.023804,-0.014801,-0.018616,0,-0.0094604,-0.007019,-0.021057,0.018768,0.00076294,0.019836,-0.011749,-0.0074768,-0.021057,-0.010071,0.017242,-0.01709,-0.0028992,-0.015106,-0.0074768,-0.004425,-0.0047302,0.007782,0.0093079,0.016327,-0.01358,-0.00030518,-0.014801,0.0010681,-0.018463,-0.014954,-0.015869,-0.005188,-0.01358,-0.0030518,-0.0012207,0.0027466,-0.0045776,0.018921
0.0054932,0.016022,0.0085449,0.00030518,-0.022125,-0.019379,-0.013733,-0.0019836,-0.0090027,-0.011749,-0.018768,0.0097656,0.00061035,0.023499,-0.019684,-0.0024414,-0.016479,-0.01236,0.024414,-0.014496,-0.0012207,-0.0045776,-0.0047302,-0.0030518,-0.0068665,0.0090027,0.012054,0.019073,0.0036621,0.0018311,-0.0091553,-0.0015259,-0.0099182,-0.0097656,-0.017853,-0.005188,0.004425,0.00061035,0.0038147,0.0047302,-0.0015259,0.019836
0.0065613,0.019989,0.011749,0.010986,-0.020905,-0.02121,0.0010681,-0.0086975,-0.0050354,-0.021515,-0.01236,0.0062561,-0.0019836,0.027924,-0.021667,0.0071716,-0.01236,-0.01358,0.027161,-0.011749,0.011139,0.022736,0.015717,0.0028992,0.0012207,0.017548,0.014191,0.026703,0.025177,0.019531,0.010834,-0.0022888,0.017242,0.0036621,-0.016022,0.0033569,0.021057,0.0048828,0.0094604,0.010071,0.0028992,0.016937
0.0059509,0.015717,0.020294,0.011597,-0.018158,-0.022888,0.014038,-0.0177,-0.0035095,-0.021057,-0.0048828,0.0076294,-0.002594,0.044556,-0.020752,0.02533,0.0024414,-0.009613,0.032196,0.0079346,0.03006,0.035095,0.047607,0.016632,0.012665,0.036011,0.019531,0.029144,0.037842,0.023041,0.023651,-0.0032043,0.032959,0.017548,-0.015259,0.010376,0.036469,0.017242,0.0086975,0.016937,0.022888,0.018005
0.0097656,0.014038,0.023956,0.0097656,-0.00015259,-0.019226,0.01709,-0.019226,0.0033569,-0.015717,0.007782,0.0019836,-0.0050354,0.052338,-0.015869,0.036163,0.030823,0.004425,0.054626,0.021515,0.047607,0.054169,0.054474,0.021057,0.0038147,0.041046,0.014496,0.022888,0.05127,0.021973,0.033875,0.0073242,0.043182,0.028076,-0.011444,0.0086975,0.054169,0.023651,-0.0027466,0.099945,0.029602,0.022888
0.043945,0.013275,0.039215,0.0083923,0.016022,-0.017548,0.020447,-0.017548,0.0032043,-0.013733,0.037537,-0.0056458,-0.0041199,0.041046,-0.016632,0.053864,0.054016,0.025635,0.06897,0.024872,0.05188,0.05661,0.061035,0.0035095,-0.020294,0.030365,0.002594,0.010071,0.050964,0.012207,0.016937,0.049286,0.043488,0.035553,-0.009613,0.014801,0.078125,0.038147,-0.004425,0.22476,0.049438,0.043488
0.11063,0.011292,0.069885,0.0045776,0.015411,0.00015259,0.010071,-0.015259,-0.0021362,-0.015564,0.041351,-0.0062561,0.0016785,0.054169,-0.015259,0.069275,0.049438,0.047607,0.092621,0.032043,0.042267,0.039215,0.098724,-0.020142,-0.037537,0.019684,-0.027618,-0.015259,0.029144,0.00091553,-0.016479,0.050201,0.061493,0.066528,0.012207,0.054779,0.083313,0.081635,0.010223,0.27771,0.066681,0.10178
0.13611,0.010376,0.08667,-0.00045776,0.004425,0.018463,0.00045776,-0.024719,-0.0099182,0.002594,0.023193,-0.0067139,-0.00030518,0.073547,0.0027466,0.049744,0.010986,0.048218,0.072021,0.049438,0.0094604,0.0090027,0.12024,-0.015106,-0.0094604,0.030823,-0.045776,-0.025024,-0.016022,0.0028992,-0.011139,0.042725,0.06958,0.088959,0.05249,0.071411,0.089569,0.082397,0.05249,0.22034,0.095367,0.14816
0.11719,-0.0048828,0.060577,-0.0028992,0.021515,0.024109,0.0015259,-0.033264,-0.017853,0.013275,0.0065613,-0.0038147,-0.0038147,0.085754,0.016022,0.042267,-0.0065613,0.046387,0.03891,0.1001,0.018616,-0.013275,0.083466,0.0053406,0.036163,0.053558,-0.032196,-0.0059509,-0.029449,0.0074768,0.010071,0.043793,0.061951,0.099792,0.099487,0.065308,0.13977,0.076599,0.11597,0.17822,0.1091,0.19806
0.070038,-0.0088501,0.02182,-0.0047302,0.025635,0.014648,0.0083923,-0.015259,-0.021362,0.014801,-0.012665,-0.0094604,-0.016174,0.076294,0.014038,0.037079,-0.0061035,0.014801,0.022736,0.13748,0.026245,-0.014191,-0.0065613,0.019836,0.069733,0.041199,-0.036621,-0.043793,-0.01236,0.020752,-0.0079346,0.004425,0.042877,0.061646,0.1004,0.04303,0.14587,0.070801,0.12115,0.16602,0.06958,0.17609
-0.05188,-0.0041199,-0.050201,-0.011902,0.00061035,0.0048828,0.0028992,0.020599,-0.019073,0.0083923,-0.023956,-0.0085449,-0.024872,0.015411,0.011749,-0.056915,-0.037079,-0.025177,-0.033875,0.14023,-0.030823,-0.014648,-0.086975,0.020447,0.10147,-0.0047302,-0.022125,-0.086517,0.0013733,-0.00061035,-0.0045776,-0.051727,0.030975,0.013885,0.055542,-0.026855,0.066681,0.018921,0.11871,0.061951,-0.023041,0.027466
-0.1796,-0.012665,-0.097961,-0.0032043,-0.010681,0.0083923,-0.0093079,0.029602,-0.021057,0.0045776,-0.025024,-0.013428,-0.013428,-0.12222,0.020752,-0.21088,-0.045624,-0.071259,-0.14435,0.07843,-0.10468,-0.0030518,-0.14389,-0.023651,0.088806,-0.051727,-0.0050354,-0.072327,0.027924,-0.043335,0.032654,-0.11627,0.039215,-0.023651,0.018768,-0.10925,-0.072632,-0.069275,0.05661,-0.14984,-0.13855,-0.17258
-0.22552,-0.037689,-0.13565,0.011749,-0.013123,0.014038,-0.015259,0.017853,-0.016937,-0.0042725,-0.02243,-0.019531,-0.0093079,-0.25665,0.014038,-0.24353,-0.0354,-0.10025,-0.19363,-0.042419,-0.13245,-0.010986,-0.06546,-0.06897,0.051422,-0.069733,0.0085449,0.014038,0.0088501,-0.036163,0.032501,-0.12085,0.062714,-0.049896,-0.034943,-0.17166,-0.17227,-0.041656,-0.06546,-0.31265,-0.1973,-0.33142
-0.18829,-0.040436,-0.14755,0.0085449,-0.015869,0.0056458,-0.015564,0.014954,-0.011749,-0.00091553,-0.020294,-0.0177,-0.019684,-0.27954,-0.010376,-0.1268,-0.050049,-0.078583,-0.13123,-0.15274,-0.10849,-0.037079,0.0099182,-0.049286,0.010071,-0.13351,-0.0010681,0.081635,-0.037689,-0.019531,0.005188,-0.010376,0.032654,-0.051575,-0.10925,-0.11261,-0.16602,0.0024414,-0.15884,-0.41199,-0.15259,-0.3067
-0.14435,-0.028381,-0.11688,0.00015259,-0.016785,-0.020905,-0.021667,0.004425,-0.0065613,-0.0094604,-0.018005,-0.014954,-0.028839,-0.18066,-0.02243,-0.040131,-0.053558,-0.024567,-0.079346,-0.22598,-0.068207,-0.047302,-0.023193,-0.019226,-0.022888,-0.1619,-0.0067139,0.072327,-0.06897,-0.013885,0.0083923,0.12039,-0.10574,-0.07843,-0.1474,-0.025482,-0.10895,-0.031128,-0.23575,-0.45868,-0.071411,-0.23178
-0.11795,-0.015259,-0.097809,-0.016785,-0.014801,-0.034943,-0.01358,-0.0019836,0.0053406,-0.0177,-0.0073242,-0.015564,-0.025787,-0.04837,-0.02182,0.020447,0.0062561,0.020447,-0.088806,-0.20966,-0.032501,-0.079803,-0.13046,0.028381,-0.077972,-0.071869,-0.0030518,-0.0065613,-0.084686,-0.0079346,0.040741,0.14511,-0.25955,-0.11597,-0.079803,0.0021362,-0.13382,-0.10086,-0.23956,-0.41565,-0.071716,-0.20508
-0.11368,-0.011902,-0.094299,-0.021973,-0.01236,-0.022583,-0.014191,-0.0057983,0.012054,-0.014191,-0.015259,-0.020447,-0.0056458,-0.037231,-0.015564,0.033875,0.041046,-0.011749,-0.091553,-0.21164,-0.048981,-0.11841,-0.30243,-0.0036621,-0.19073,-0.071106,-0.040741,-0.12299,-0.13046,-0.084991,-0.025482,0.039368,-0.36133,-0.23254,-0.062408,-0.0015259,-0.19302,-0.19135,-0.21942,-0.25406,-0.103,-0.21729
-0.040283,-0.012817,-0.069427,-0.024261,-0.0022888,-0.0033569,-0.010681,-0.0067139,0.018005,0.00030518,-0.041351,-0.004425,0.016632,-0.065765,-0.0021362,0.015564,-0.0016785,-0.046692,-0.084839,-0.21576,-0.10269,-0.099182,-0.37857,-0.048218,-0.19958,-0.13138,-0.067291,-0.14328,-0.13245,-0.12939,-0.13275,-0.10895,-0.2951,-0.31403,-0.057678,-0.01709,-0.17502,-0.23712,-0.18631,-0.10941,-0.09201,-0.17441
0.023956,-0.007019,-0.014038,-0.025482,-0.0045776,0.0027466,-0.0094604,-0.0038147,0.016479,0.013275,-0.057983,0.012817,0.02533,-0.080109,0.0047302,-0.019226,-0.046539,-0.046844,-0.057831,-0.17273,-0.11353,-0.07309,-0.26703,-0.037537,-0.13412,-0.17334,-0.040741,-0.10086,-0.096741,-0.10757,-0.18951,-0.18936,-0.11047,-0.23911,-0.0042725,-0.020599,-0.14984,-0.25452,-0.071411,0.0028992,-0.041199,-0.0036621
0.049286,0.0068665,0.038147,-0.019684,-0.0061035,0,-0.014038,-0.0018311,0.012817,0.015259,-0.049133,0.015869,0.022278,-0.0080872,0.0032043,-0.037842,-0.048676,-0.024261,0.016785,-0.033875,-0.041809,-0.02243,-0.032043,-0.032654,-0.099487,-0.039062,0.0010681,-0.030365,-0.014343,-0.065613,-0.13855,-0.22049,-0.045013,-0.15045,0.011139,-0.031281,-0.096283,-0.1683,0.046234,-0.042877,-0.032959,0.13885
0.078278,0.019073,0.092926,-0.016479,-0.013123,-0.0091553,-0.01709,-0.00061035,0.0082397,0.0080872,-0.020142,0.012512,0.016022,0.075531,-0.0059509,-0.007782,-0.013428,-0.0013733,0.082703,0.079041,0.062866,0.028229,0.1355,-0.030823,-0.045776,0.091095,0.041046,0.040283,0.055847,-0.016479,-0.065002,-0.1796,-0.0041199,-0.053711,-0.025635,-0.066833,-0.018768,-0.017395,0.11993,-0.12344,-0.045166,0.24841
0.11597,0.019073,0.12344,-0.007019,-0.010529,-0.011902,-0.016022,-0.0062561,0.0036621,-0.0021362,0.018158,0.010223,0.011597,0.1445,-0.0085449,0.043945,0.02121,0.017548,0.091095,0.15244,0.12512,0.034485,0.18631,-0.020599,0.02182,0.13992,0.064392,0.066376,0.085144,0.027008,-0.032501,-0.080872,0.080719,0.076599,-0.054474,-0.063629,0.079041,0.13351,0.14603,-0.025177,0.014191,0.25085
0.13809,0.017548,0.12863,0.0056458,-0.012817,-0.007019,-0.0056458,-0.0071716,-0.0033569,-0.012054,0.039978,0.0045776,0.0039673,0.17334,-0.0097656,0.088196,0.029602,0.020294,0.097504,0.15671,0.14008,0.046997,0.1973,0.011597,-0.0068665,0.15961,0.045013,0.075989,0.08316,0.055695,0.029297,-0.01709,0.15289,0.19882,-0.030823,-0.01297,0.12772,0.1535,0.1329,0.19272,0.098724,0.1683
0.12466,0.011749,0.096741,0.019684,-0.012054,-0.010986,0.010529,-0.013733,-0.0028992,-0.018311,0.036926,0.0010681,0.0050354,0.16876,-0.0076294,0.099945,0.019379,0.033722,0.08316,0.15106,0.1329,0.059967,0.20294,0.028076,-0.043793,0.1268,0.019531,0.065002,0.069427,0.070038,0.034332,0.048828,0.17441,0.24323,0.0073242,0.046234,0.13184,0.16296,0.12253,0.31708,0.11826,0.11154
0.083313,0.011444,0.063934,0.017548,0.0059509,-0.013885,0.018921,-0.018768,-0.0083923,-0.019989,0.025482,0.00045776,-0.0012207,0.1329,-0.011292,0.085297,0.029297,0.04776,0.075531,0.14221,0.1001,0.065918,0.18372,0.029144,-0.0045776,0.048828,-0.0021362,0.047913,0.054169,0.077667,-0.0071716,0.10803,0.14435,0.22476,0.041046,0.074768,0.10696,0.14969,0.080261,0.31525,0.1236,0.078888
0.041656,0.0015259,0.028381,0.014496,0.011597,-0.013275,0.018463,-0.018158,-0.0082397,-0.022583,0.016785,-0.0012207,-0.0083923,0.071869,-0.017853,0.057831,0.02655,0.029907,0.064087,0.1033,0.072174,0.057831,0.14389,0.018616,0.069275,-0.035706,-0.018311,0.013428,0.043335,0.07019,-0.012665,0.13916,0.11215,0.16479,0.062103,0.090637,0.08667,0.10025,0.029602,0.24612,0.10651,0.055695
0.0061035,-0.0028992,-0.00076294,0.007782,0.0093079,0.004425,0.010529,-0.011139,-0.011139,-0.020905,0.015869,-0.0054932,-0.0079346,0.015869,-0.012512,0.015564,0.013275,0.0093079,0.051575,0.056763,0.011139,0.035706,0.085907,0.020599,0.090637,-0.044556,-0.039673,0.0048828,0.033722,0.050354,0.017548,0.12451,0.095062,0.079498,0.071869,0.072937,0.074005,0.066833,-0.022888,0.21164,0.044403,0.007782
-0.018311,-0.0091553,-0.0177,0.0048828,0.010529,0.0086975,0.0085449,-0.014038,-0.018768,-0.016022,0.018616,-0.00045776,-0.0065613,-0.016785,0,-0.015564,0.0042725,-0.0015259,0.03479,0.022583,-0.038147,0.016022,0.02243,0.024719,0.15488,-0.0042725,-0.033875,0.024414,0.018463,0.023804,0.090637,0.061951,0.061188,0.014496,0.058289,0.037384,0.024872,0.02533,-0.038452,0.16068,0.00091553,-0.065613
-0.03006,-0.0085449,-0.030823,0.00091553,0.0047302,0.0090027,0.004425,-0.018616,-0.018463,-0.0027466,0.010986,0.00030518,-0.009613,-0.0354,0.0064087,-0.035858,-0.0032043,-0.0022888,0.019073,-0.0048828,-0.058441,0.0030518,-0.015106,0.020599,0.19897,0.029297,-0.012817,0.017242,-0.00015259,0.0028992,0.14008,0.015411,0.019379,-0.0042725,0.049896,0.019073,-0.037384,-0.027313,-0.03952,0.056458,-0.0042725,-0.075226
-0.03952,-0.0065613,-0.035706,-0.004425,0,0.0074768,0,-0.0032043,-0.020142,0.011139,0.0045776,-0.0047302,-0.016937,-0.04425,0.0076294,-0.041656,-0.0036621,0.0021362,-0.004425,-0.029907,-0.062408,-0.00076294,-0.065155,0.019684,0.13077,0.052185,-0.0088501,-0.011749,-0.0033569,-0.018616,0.12497,0.012512,-0.0038147,-0.007019,0.027466,0.012512,-0.060883,-0.085297,-0.063629,-0.069122,-0.0053406,-0.053864
-0.045776,-0.0028992,-0.037994,-0.010529,-0.0030518,0.005188,-0.0042725,0.012054,-0.016632,0.016632,-0.00061035,-0.007782,-0.02182,-0.049438,0.0079346,-0.048981,-0.011139,0,-0.031738,-0.048065,-0.06134,0.0047302,-0.10239,-0.0024414,0.027161,0.046692,-0.0045776,-0.03952,-0.011749,-0.034332,0.072937,0.018616,-0.014954,-0.02655,-0.007019,-0.0093079,-0.027618,-0.15961,-0.049896,-0.13748,-0.0177,-0.042572
-0.056305,-0.0054932,-0.045013,-0.0097656,-0.005188,0.00061035,-0.011292,0.0097656,-0.016479,0.012054,-0.010681,-0.015106,-0.021362,-0.06485,0.005188,-0.051117,-0.010681,-0.0028992,-0.054474,-0.051575,-0.054932,-0.0076294,-0.11047,-0.020294,-0.039673,0.039215,0.009613,-0.059814,-0.020142,-0.017395,0.029449,0.035553,-0.032196,-0.043488,-0.029602,-0.037384,0.03479,-0.22217,-0.0019836,-0.19241,-0.038605,-0.062714
-0.058136,-0.0088501,-0.04715,-0.0090027,-0.0064087,-0.0030518,-0.013733,0.010681,-0.01709,0.010223,-0.013885,-0.02182,-0.017548,-0.070343,0.0015259,-0.033417,-0.01709,-0.0080872,-0.069427,-0.061188,-0.038147,-0.022736,-0.079041,-0.020447,-0.079956,0.019073,0.0024414,-0.062561,-0.023346,-0.0056458,-0.032196,0.029602,-0.042267,-0.050659,-0.030975,-0.05249,0.057983,-0.14755,0.029449,-0.22995,-0.050354,-0.06012
-0.049438,-0.010986,-0.042572,-0.0068665,-0.004425,-0.0018311,-0.0090027,0.0073242,0.00045776,0.0033569,-0.017548,-0.022125,-0.014954,-0.069885,-0.002594,-0.022736,-0.011139,-0.013275,-0.075073,-0.046844,-0.01709,-0.029297,-0.045624,-0.023499,-0.08316,-0.036469,0.012512,-0.061951,-0.029449,-0.010071,-0.079498,-0.010376,-0.056915,-0.062561,-0.035095,-0.031128,0.02594,-0.039368,0.032501,-0.23621,-0.05249,-0.056763
-0.04425,-0.019226,-0.034485,-0.0059509,-0.00030518,-0.0038147,-0.0088501,0.0068665,0.011902,0.0033569,-0.019989,-0.020142,-0.016479,-0.057068,-0.0041199,-0.017395,-0.0073242,-0.015869,-0.069275,-0.033569,-0.0082397,-0.024567,-0.0354,-0.019379,-0.092316,-0.063477,0.007782,-0.03952,-0.036011,-0.0085449,-0.088348,-0.039673,-0.065002,-0.060272,-0.030823,-0.023193,-0.02655,0.066528,0.021057,-0.17151,-0.037689,-0.036316
-0.043488,-0.02533,-0.03067,-0.01297,0,-0.0053406,-0.0073242,-0.0013733,0.010071,-0.0013733,-0.015717,-0.021515,-0.0093079,-0.052338,-0.0035095,-0.0085449,-0.0086975,-0.016937,-0.052032,-0.027924,-0.0019836,-0.028076,-0.029602,-0.012054,-0.074921,-0.081787,-0.0097656,-0.0024414,-0.046082,-0.016327,-0.070038,-0.052643,-0.065613,-0.04715,-0.020447,-0.012665,-0.058289,0.096436,-0.016327,-0.034485,-0.016785,-0.024261
-0.028076,-0.023346,-0.028229,-0.019226,-0.00030518,-0.0050354,-0.014343,-0.00030518,0.0091553,-0.0038147,-0.012665,-0.017395,0.0093079,-0.039978,-0.0021362,-0.0094604,-0.0097656,-0.017548,-0.046539,-0.027161,0.00076294,-0.03006,-0.027008,-0.0047302,-0.05722,-0.074158,-0.0079346,0.016632,-0.046387,-0.023651,-0.026703,-0.048065,-0.064392,-0.033112,-0.0012207,-0.010376,-0.065155,0.088196,-0.024414,0.030365,-0.010986,-0.016632
-0.0039673,-0.022278,-0.018463,-0.016327,-0.0080872,-0.0022888,-0.0177,-0.002594,0.0080872,-0.0090027,-0.011444,-0.013733,0.011597,-0.027466,-0.0027466,-0.0079346,-0.016174,-0.017853,-0.034943,-0.034027,-0.00061035,-0.03418,-0.02182,0.0024414,-0.031128,-0.03952,-0.012054,0.020905,-0.034027,-0.027466,0.0080872,-0.038605,-0.05249,-0.022125,0.0097656,-0.012207,-0.049591,0.069885,-0.032806,0.0354,-0.013123,-0.019684
